# Czas Kana³_1 Kana³_2 Kana³_3 Kana³_4 Kana³_5 Kana³_6 Kana³_7 Kana³_8 Kana³_9 Kana³_10 Kana³_11 Kana³_12
0.000000 106.000000 335.000000 228.000000 -227.000000 -59.000000 291.000000 -392.000000 -45.000000 443.000000 372.000000 908.000000 395.000000
0.001000 106.000000 335.000000 228.000000 -227.000000 -59.000000 291.000000 -392.000000 -45.000000 443.000000 372.000000 908.000000 395.000000
0.002000 106.000000 325.000000 219.000000 -219.000000 -60.000000 284.000000 492.000000 837.000000 239.000000 372.000000 908.000000 405.000000
0.003001 86.000000 306.000000 219.000000 -214.000000 -55.000000 274.000000 487.000000 832.000000 240.000000 404.000000 179.000000 -63.000000
0.004001 96.000000 320.000000 224.000000 -195.000000 -65.000000 264.000000 492.000000 842.000000 244.000000 404.000000 174.000000 -62.000000
0.005001 106.000000 325.000000 219.000000 -207.000000 -62.000000 274.000000 492.000000 832.000000 235.000000 414.000000 189.000000 -52.000000
0.006001 96.000000 335.000000 238.000000 -214.000000 -55.000000 274.000000 492.000000 836.000000 235.000000 399.000000 174.000000 -67.000000
0.007001 96.000000 325.000000 228.000000 -214.000000 -70.000000 288.000000 492.000000 831.000000 230.000000 399.000000 174.000000 -62.000000
0.008002 116.000000 335.000000 219.000000 -209.000000 -65.000000 279.000000 487.000000 825.000000 230.000000 394.000000 174.000000 -67.000000
0.009002 101.000000 335.000000 233.000000 -224.000000 -50.000000 279.000000 492.000000 835.000000 240.000000 394.000000 164.000000 -86.000000
0.010002 86.000000 335.000000 248.000000 -217.000000 -65.000000 286.000000 482.000000 830.000000 240.000000 403.000000 184.000000 -56.000000
0.011002 106.000000 340.000000 233.000000 -209.000000 -79.000000 293.000000 482.000000 825.000000 235.000000 403.000000 174.000000 -66.000000
0.012002 86.000000 315.000000 228.000000 -222.000000 -62.000000 288.000000 482.000000 815.000000 225.000000 403.000000 174.000000 -71.000000
0.013003 77.000000 296.000000 219.000000 -200.000000 -70.000000 274.000000 477.000000 825.000000 235.000000 397.000000 174.000000 -66.000000
0.014003 91.000000 297.000000 204.000000 -185.000000 -70.000000 259.000000 497.000000 839.000000 235.000000 397.000000 164.000000 -75.000000
0.015003 96.000000 302.000000 204.000000 -192.000000 -55.000000 252.000000 492.000000 829.000000 225.000000 397.000000 169.000000 -75.000000
0.016003 111.000000 326.000000 214.000000 -197.000000 -53.000000 254.000000 497.000000 829.000000 230.000000 388.000000 154.000000 -85.000000
0.017003 106.000000 326.000000 219.000000 -217.000000 -50.000000 271.000000 497.000000 833.000000 235.000000 388.000000 155.000000 -88.000000
0.018004 91.000000 321.000000 228.000000 -214.000000 -55.000000 274.000000 486.000000 833.000000 244.000000 402.000000 165.000000 -83.000000
0.019004 96.000000 321.000000 224.000000 -205.000000 -67.000000 276.000000 486.000000 837.000000 244.000000 407.000000 175.000000 -69.000000
0.020004 77.000000 302.000000 224.000000 -207.000000 -62.000000 274.000000 496.000000 832.000000 235.000000 407.000000 175.000000 -69.000000
0.021004 81.000000 298.000000 214.000000 -187.000000 -72.000000 264.000000 486.000000 822.000000 215.000000 392.000000 165.000000 -73.000000
0.022004 91.000000 298.000000 204.000000 -187.000000 -65.000000 257.000000 496.000000 827.000000 220.000000 378.000000 146.000000 -83.000000
0.023005 101.000000 317.000000 214.000000 -192.000000 -55.000000 253.000000 496.000000 832.000000 230.000000 377.000000 151.000000 -88.000000
0.024005 111.000000 332.000000 219.000000 -207.000000 -55.000000 267.000000 490.000000 827.000000 225.000000 387.000000 161.000000 -77.000000
0.025005 106.000000 342.000000 234.000000 -219.000000 -53.000000 277.000000 500.000000 836.000000 235.000000 382.000000 156.000000 -82.000000
0.026005 106.000000 352.000000 244.000000 -222.000000 -62.000000 289.000000 500.000000 836.000000 235.000000 391.000000 166.000000 -72.000000
0.027005 96.000000 352.000000 254.000000 -227.000000 -67.000000 299.000000 500.000000 831.000000 230.000000 391.000000 166.000000 -72.000000
0.028006 77.000000 342.000000 264.000000 -222.000000 -77.000000 304.000000 504.000000 835.000000 235.000000 382.000000 161.000000 -72.000000
0.029006 72.000000 342.000000 268.000000 -207.000000 -92.000000 304.000000 514.000000 840.000000 244.000000 390.000000 166.000000 -68.000000
0.030006 86.000000 347.000000 259.000000 -205.000000 -97.000000 306.000000 514.000000 834.000000 235.000000 395.000000 171.000000 -68.000000
0.031006 81.000000 347.000000 264.000000 -214.000000 -84.000000 305.000000 519.000000 834.000000 230.000000 386.000000 156.000000 -80.000000
0.032006 101.000000 357.000000 254.000000 -212.000000 -89.000000 307.000000 519.000000 834.000000 225.000000 375.000000 147.000000 -90.000000
0.033007 116.000000 361.000000 245.000000 -227.000000 -75.000000 307.000000 524.000000 834.000000 230.000000 375.000000 147.000000 -90.000000
0.034007 111.000000 376.000000 265.000000 -236.000000 -62.000000 305.000000 518.000000 844.000000 240.000000 380.000000 156.000000 -80.000000
0.035007 111.000000 376.000000 265.000000 -241.000000 -75.000000 322.000000 513.000000 839.000000 240.000000 389.000000 166.000000 -75.000000
0.036007 106.000000 376.000000 269.000000 -241.000000 -75.000000 322.000000 503.000000 833.000000 240.000000 389.000000 166.000000 -75.000000
0.037007 91.000000 381.000000 289.000000 -240.000000 -79.000000 325.000000 503.000000 838.000000 240.000000 394.000000 166.000000 -75.000000
0.038008 96.000000 386.000000 289.000000 -235.000000 -97.000000 337.000000 503.000000 838.000000 235.000000 394.000000 171.000000 -69.000000
0.039008 96.000000 386.000000 289.000000 -240.000000 -94.000000 339.000000 513.000000 842.000000 235.000000 394.000000 171.000000 -69.000000
0.040008 111.000000 400.000000 289.000000 -240.000000 -94.000000 339.000000 503.000000 837.000000 230.000000 399.000000 181.000000 -65.000000
0.041008 135.000000 410.000000 274.000000 -254.000000 -87.000000 347.000000 489.000000 831.000000 230.000000 389.000000 171.000000 -65.000000
0.042008 125.000000 416.000000 289.000000 -271.000000 -67.000000 344.000000 479.000000 831.000000 240.000000 388.000000 171.000000 -69.000000
0.043009 111.000000 406.000000 294.000000 -269.000000 -79.000000 354.000000 469.000000 826.000000 235.000000 398.000000 181.000000 -60.000000
0.044009 116.000000 382.000000 265.000000 -257.000000 -89.000000 351.000000 469.000000 826.000000 235.000000 393.000000 171.000000 -65.000000
0.045009 106.000000 372.000000 265.000000 -247.000000 -72.000000 326.000000 469.000000 831.000000 240.000000 398.000000 177.000000 -53.000000
0.046009 116.000000 387.000000 269.000000 -237.000000 -77.000000 321.000000 469.000000 831.000000 235.000000 408.000000 187.000000 -48.000000
0.047009 125.000000 397.000000 269.000000 -249.000000 -75.000000 330.000000 469.000000 830.000000 235.000000 403.000000 182.000000 -53.000000
0.048010 135.000000 421.000000 284.000000 -260.000000 -70.000000 335.000000 464.000000 830.000000 235.000000 402.000000 182.000000 -58.000000
0.049010 145.000000 436.000000 290.000000 -277.000000 -72.000000 355.000000 459.000000 835.000000 241.000000 402.000000 182.000000 -58.000000
0.050010 140.000000 421.000000 280.000000 -290.000000 -70.000000 365.000000 454.000000 840.000000 250.000000 407.000000 187.000000 -53.000000
0.051010 140.000000 406.000000 266.000000 -280.000000 -67.000000 352.000000 449.000000 834.000000 250.000000 417.000000 196.000000 -48.000000
0.052010 135.000000 387.000000 251.000000 -272.000000 -60.000000 338.000000 434.000000 813.000000 231.000000 416.000000 196.000000 -47.000000
0.053011 116.000000 362.000000 246.000000 -260.000000 -55.000000 321.000000 434.000000 808.000000 231.000000 396.000000 187.000000 -52.000000
0.054011 106.000000 367.000000 261.000000 -238.000000 -62.000000 306.000000 429.000000 803.000000 221.000000 396.000000 182.000000 -57.000000
0.055011 101.000000 387.000000 285.000000 -236.000000 -75.000000 316.000000 434.000000 803.000000 216.000000 386.000000 172.000000 -62.000000
0.056011 130.000000 393.000000 261.000000 -243.000000 -89.000000 338.000000 438.000000 818.000000 231.000000 386.000000 172.000000 -62.000000
0.057011 160.000000 422.000000 261.000000 -260.000000 -62.000000 328.000000 428.000000 808.000000 226.000000 401.000000 187.000000 -52.000000
0.058012 164.000000 422.000000 256.000000 -290.000000 -48.000000 343.000000 414.000000 807.000000 231.000000 401.000000 187.000000 -52.000000
0.059012 160.000000 402.000000 241.000000 -292.000000 -43.000000 340.000000 409.000000 807.000000 231.000000 406.000000 197.000000 -45.000000
0.060012 150.000000 398.000000 246.000000 -280.000000 -39.000000 323.000000 414.000000 802.000000 231.000000 411.000000 202.000000 -30.000000
0.061012 150.000000 398.000000 246.000000 -272.000000 -46.000000 323.000000 423.000000 817.000000 241.000000 405.000000 193.000000 -40.000000
0.062012 150.000000 383.000000 231.000000 -272.000000 -46.000000 323.000000 443.000000 840.000000 260.000000 410.000000 197.000000 -35.000000
0.063013 135.000000 379.000000 241.000000 -265.000000 -39.000000 308.000000 448.000000 844.000000 260.000000 434.000000 212.000000 -25.000000
0.064013 135.000000 384.000000 246.000000 -255.000000 -51.000000 311.000000 457.000000 854.000000 270.000000 429.000000 207.000000 -35.000000
0.065013 140.000000 394.000000 251.000000 -258.000000 -54.000000 316.000000 453.000000 849.000000 260.000000 439.000000 212.000000 -30.000000
0.066013 164.000000 389.000000 222.000000 -265.000000 -54.000000 323.000000 442.000000 839.000000 255.000000 434.000000 213.000000 -34.000000
0.067013 160.000000 394.000000 231.000000 -275.000000 -27.000000 307.000000 437.000000 835.000000 255.000000 424.000000 203.000000 -44.000000
0.068014 150.000000 360.000000 207.000000 -275.000000 -34.000000 314.000000 442.000000 839.000000 260.000000 419.000000 198.000000 -44.000000
0.069014 135.000000 335.000000 197.000000 -253.000000 -27.000000 285.000000 437.000000 824.000000 245.000000 428.000000 203.000000 -39.000000
0.070014 121.000000 330.000000 207.000000 -233.000000 -29.000000 268.000000 447.000000 834.000000 245.000000 414.000000 194.000000 -49.000000
0.071014 116.000000 325.000000 207.000000 -224.000000 -41.000000 270.000000 447.000000 824.000000 241.000000 413.000000 194.000000 -49.000000
0.072014 116.000000 340.000000 222.000000 -220.000000 -44.000000 268.000000 447.000000 814.000000 231.000000 408.000000 189.000000 -61.000000
0.073015 101.000000 345.000000 242.000000 -227.000000 -51.000000 283.000000 452.000000 823.000000 245.000000 403.000000 179.000000 -66.000000
0.074015 86.000000 330.000000 242.000000 -222.000000 -68.000000 295.000000 442.000000 818.000000 236.000000 418.000000 194.000000 -57.000000
0.075015 96.000000 335.000000 237.000000 -208.000000 -76.000000 289.000000 456.000000 822.000000 241.000000 408.000000 179.000000 -76.000000
0.076015 96.000000 335.000000 237.000000 -215.000000 -68.000000 289.000000 466.000000 822.000000 226.000000 403.000000 174.000000 -76.000000
0.077015 86.000000 291.000000 203.000000 -215.000000 -68.000000 289.000000 461.000000 812.000000 211.000000 383.000000 159.000000 -86.000000
0.078016 86.000000 272.000000 184.000000 -188.000000 -56.000000 249.000000 471.000000 832.000000 231.000000 369.000000 150.000000 -96.000000
0.079016 77.000000 281.000000 203.000000 -178.000000 -46.000000 230.000000 481.000000 832.000000 231.000000 388.000000 164.000000 -85.000000
0.080016 86.000000 291.000000 203.000000 -178.000000 -61.000000 245.000000 481.000000 826.000000 226.000000 388.000000 159.000000 -90.000000
0.081016 96.000000 281.000000 185.000000 -188.000000 -56.000000 249.000000 476.000000 826.000000 221.000000 382.000000 150.000000 -95.000000
0.082016 106.000000 286.000000 180.000000 -188.000000 -41.000000 235.000000 475.000000 821.000000 216.000000 378.000000 145.000000 -109.000000
0.083017 96.000000 292.000000 194.000000 -195.000000 -34.000000 235.000000 475.000000 821.000000 221.000000 373.000000 145.000000 -109.000000
0.084017 96.000000 287.000000 189.000000 -193.000000 -46.000000 245.000000 470.000000 820.000000 216.000000 373.000000 145.000000 -99.000000
0.085017 106.000000 287.000000 180.000000 -190.000000 -44.000000 240.000000 460.000000 810.000000 211.000000 373.000000 150.000000 -99.000000
0.086017 81.000000 263.000000 180.000000 -195.000000 -34.000000 235.000000 460.000000 804.000000 211.000000 368.000000 141.000000 -107.000000
0.087017 77.000000 253.000000 175.000000 -171.000000 -46.000000 223.000000 470.000000 814.000000 216.000000 367.000000 141.000000 -102.000000
0.088018 86.000000 258.000000 170.000000 -164.000000 -46.000000 215.000000 469.000000 809.000000 206.000000 377.000000 151.000000 -93.000000
0.089018 86.000000 263.000000 175.000000 -171.000000 -39.000000 216.000000 469.000000 809.000000 206.000000 367.000000 141.000000 -107.000000
0.090018 96.000000 268.000000 170.000000 -173.000000 -41.000000 221.000000 474.000000 809.000000 206.000000 361.000000 141.000000 -107.000000
0.091018 111.000000 282.000000 170.000000 -181.000000 -34.000000 221.000000 469.000000 808.000000 201.000000 366.000000 141.000000 -107.000000
0.092018 96.000000 282.000000 185.000000 -195.000000 -27.000000 229.000000 474.000000 813.000000 211.000000 356.000000 131.000000 -117.000000
0.093019 81.000000 287.000000 204.000000 -188.000000 -41.000000 236.000000 474.000000 813.000000 216.000000 361.000000 136.000000 -106.000000
0.094019 86.000000 263.000000 175.000000 -183.000000 -59.000000 248.000000 474.000000 813.000000 211.000000 371.000000 146.000000 -101.000000
0.095019 77.000000 248.000000 170.000000 -173.000000 -41.000000 221.000000 474.000000 812.000000 216.000000 366.000000 136.000000 -111.000000
0.096019 77.000000 258.000000 180.000000 -161.000000 -44.000000 211.000000 479.000000 817.000000 213.000000 371.000000 146.000000 -101.000000
0.097019 77.000000 249.000000 170.000000 -166.000000 -49.000000 221.000000 484.000000 811.000000 208.000000 371.000000 141.000000 -111.000000
0.098020 81.000000 264.000000 181.000000 -161.000000 -44.000000 211.000000 478.000000 806.000000 208.000000 366.000000 131.000000 -121.000000
0.099020 96.000000 279.000000 181.000000 -171.000000 -46.000000 224.000000 483.000000 811.000000 208.000000 371.000000 136.000000 -116.000000
0.100020 91.000000 269.000000 176.000000 -186.000000 -39.000000 231.000000 488.000000 816.000000 213.000000 365.000000 132.000000 -114.000000
0.101020 86.000000 269.000000 181.000000 -178.000000 -39.000000 224.000000 473.000000 806.000000 208.000000 370.000000 137.000000 -114.000000
0.102020 77.000000 269.000000 190.000000 -176.000000 -44.000000 226.000000 488.000000 810.000000 213.000000 365.000000 132.000000 -114.000000
0.103021 67.000000 264.000000 195.000000 -171.000000 -54.000000 231.000000 488.000000 815.000000 218.000000 375.000000 137.000000 -109.000000
0.104021 77.000000 250.000000 171.000000 -164.000000 -61.000000 231.000000 483.000000 810.000000 208.000000 375.000000 137.000000 -109.000000
0.105021 72.000000 241.000000 166.000000 -161.000000 -44.000000 211.000000 488.000000 815.000000 208.000000 375.000000 132.000000 -114.000000
0.106021 81.000000 241.000000 156.000000 -154.000000 -44.000000 204.000000 488.000000 814.000000 208.000000 369.000000 127.000000 -119.000000
0.107021 86.000000 265.000000 176.000000 -160.000000 -34.000000 199.000000 488.000000 814.000000 208.000000 369.000000 128.000000 -118.000000
0.108022 96.000000 260.000000 161.000000 -174.000000 -41.000000 221.000000 488.000000 813.000000 208.000000 374.000000 128.000000 -128.000000
0.109022 91.000000 275.000000 181.000000 -177.000000 -29.000000 211.000000 493.000000 818.000000 218.000000 369.000000 128.000000 -123.000000
0.110022 86.000000 260.000000 171.000000 -182.000000 -41.000000 229.000000 493.000000 818.000000 213.000000 377.000000 138.000000 -113.000000
0.111022 77.000000 241.000000 161.000000 -172.000000 -39.000000 217.000000 488.000000 813.000000 213.000000 373.000000 133.000000 -118.000000
0.112022 57.000000 241.000000 181.000000 -157.000000 -39.000000 203.000000 488.000000 818.000000 213.000000 368.000000 128.000000 -118.000000
0.113023 67.000000 241.000000 171.000000 -148.000000 -59.000000 212.000000 493.000000 817.000000 213.000000 373.000000 133.000000 -118.000000
0.114023 81.000000 265.000000 181.000000 -152.000000 -49.000000 208.000000 496.000000 817.000000 213.000000 373.000000 133.000000 -116.000000
0.115023 91.000000 275.000000 181.000000 -172.000000 -46.000000 225.000000 492.000000 817.000000 213.000000 368.000000 128.000000 -121.000000
0.116023 96.000000 275.000000 176.000000 -182.000000 -41.000000 230.000000 487.000000 807.000000 203.000000 368.000000 128.000000 -121.000000
0.117023 96.000000 275.000000 176.000000 -184.000000 -37.000000 227.000000 487.000000 811.000000 213.000000 358.000000 114.000000 -135.000000
0.118024 91.000000 260.000000 166.000000 -184.000000 -37.000000 227.000000 487.000000 811.000000 213.000000 368.000000 128.000000 -126.000000
0.119024 86.000000 255.000000 166.000000 -175.000000 -36.000000 216.000000 482.000000 810.000000 213.000000 372.000000 133.000000 -121.000000
0.120024 77.000000 245.000000 166.000000 -171.000000 -39.000000 213.000000 495.000000 820.000000 218.000000 367.000000 128.000000 -121.000000
0.121024 62.000000 245.000000 181.000000 -161.000000 -43.000000 209.000000 491.000000 815.000000 213.000000 376.000000 138.000000 -110.000000
0.122024 77.000000 255.000000 177.000000 -153.000000 -58.000000 216.000000 491.000000 815.000000 208.000000 372.000000 128.000000 -115.000000
0.123025 91.000000 255.000000 162.000000 -166.000000 -48.000000 218.000000 495.000000 820.000000 213.000000 367.000000 123.000000 -125.000000
0.124025 96.000000 265.000000 167.000000 -173.000000 -34.000000 211.000000 491.000000 814.000000 208.000000 372.000000 128.000000 -125.000000
0.125025 96.000000 276.000000 177.000000 -180.000000 -34.000000 218.000000 491.000000 809.000000 208.000000 367.000000 119.000000 -130.000000
0.126025 91.000000 266.000000 172.000000 -185.000000 -39.000000 228.000000 495.000000 814.000000 213.000000 366.000000 123.000000 -125.000000
0.127025 86.000000 251.000000 162.000000 -178.000000 -39.000000 221.000000 486.000000 809.000000 213.000000 375.000000 133.000000 -120.000000
0.128026 77.000000 242.000000 162.000000 -168.000000 -36.000000 209.000000 495.000000 813.000000 218.000000 371.000000 129.000000 -123.000000
0.129026 77.000000 246.000000 167.000000 -158.000000 -41.000000 204.000000 500.000000 822.000000 218.000000 374.000000 134.000000 -118.000000
0.130026 77.000000 251.000000 173.000000 -161.000000 -43.000000 209.000000 499.000000 817.000000 208.000000 379.000000 139.000000 -113.000000
0.131026 72.000000 261.000000 188.000000 -163.000000 -46.000000 213.000000 494.000000 817.000000 208.000000 370.000000 124.000000 -132.000000
0.132026 86.000000 261.000000 173.000000 -166.000000 -56.000000 226.000000 499.000000 817.000000 213.000000 374.000000 129.000000 -123.000000
0.133027 106.000000 271.000000 163.000000 -173.000000 -41.000000 219.000000 494.000000 817.000000 208.000000 379.000000 129.000000 -118.000000
0.134027 101.000000 276.000000 173.000000 -188.000000 -26.000000 219.000000 494.000000 812.000000 213.000000 370.000000 120.000000 -132.000000
0.135027 91.000000 261.000000 168.000000 -188.000000 -34.000000 227.000000 494.000000 811.000000 218.000000 374.000000 129.000000 -122.000000
0.136027 77.000000 237.000000 158.000000 -175.000000 -36.000000 217.000000 490.000000 811.000000 213.000000 379.000000 129.000000 -122.000000
0.137027 67.000000 242.000000 173.000000 -156.000000 -39.000000 200.000000 494.000000 816.000000 218.000000 374.000000 129.000000 -122.000000
0.138028 77.000000 238.000000 158.000000 -153.000000 -51.000000 210.000000 504.000000 820.000000 213.000000 378.000000 139.000000 -112.000000
0.139028 77.000000 252.000000 173.000000 -156.000000 -39.000000 200.000000 499.000000 815.000000 208.000000 378.000000 134.000000 -122.000000
0.140028 86.000000 277.000000 188.000000 -163.000000 -46.000000 214.000000 499.000000 815.000000 208.000000 373.000000 129.000000 -127.000000
0.141028 97.000000 296.000000 197.000000 -180.000000 -48.000000 234.000000 490.000000 799.000000 199.000000 373.000000 125.000000 -125.000000
0.142028 87.000000 291.000000 202.000000 -196.000000 -48.000000 249.000000 490.000000 789.000000 194.000000 364.000000 121.000000 -129.000000
0.143029 63.000000 306.000000 241.000000 -189.000000 -56.000000 249.000000 490.000000 779.000000 190.000000 364.000000 116.000000 -134.000000
0.144029 58.000000 316.000000 256.000000 -184.000000 -87.000000 275.000000 499.000000 770.000000 180.000000 369.000000 125.000000 -120.000000
0.145029 68.000000 331.000000 261.000000 -186.000000 -97.000000 288.000000 514.000000 765.000000 180.000000 363.000000 125.000000 -120.000000
0.146029 78.000000 370.000000 291.000000 -198.000000 -95.000000 297.000000 508.000000 750.000000 175.000000 372.000000 135.000000 -115.000000
0.147029 87.000000 395.000000 306.000000 -223.000000 -104.000000 332.000000 489.000000 739.000000 185.000000 382.000000 145.000000 -110.000000
0.148030 102.000000 439.000000 335.000000 -240.000000 -107.000000 351.000000 454.000000 730.000000 209.000000 415.000000 185.000000 -70.000000
0.149030 126.000000 458.000000 330.000000 -269.000000 -114.000000 388.000000 445.000000 735.000000 229.000000 464.000000 234.000000 -36.000000
0.150030 136.000000 468.000000 330.000000 -291.000000 -100.000000 395.000000 449.000000 768.000000 278.000000 493.000000 258.000000 -16.000000
0.151030 156.000000 512.000000 355.000000 -301.000000 -95.000000 400.000000 445.000000 826.000000 346.000000 542.000000 302.000000 7.000000
0.152030 185.000000 488.000000 301.000000 -333.000000 -97.000000 434.000000 434.000000 869.000000 414.000000 615.000000 361.000000 51.000000
0.153031 200.000000 429.000000 228.000000 -335.000000 -56.000000 395.000000 405.000000 923.000000 507.000000 679.000000 409.000000 80.000000
0.154031 239.000000 356.000000 117.000000 -313.000000 -12.000000 329.000000 400.000000 1006.000000 619.000000 776.000000 478.000000 129.000000
0.155031 287.000000 248.000000 -39.000000 -296.000000 62.000000 237.000000 419.000000 1152.000000 766.000000 859.000000 517.000000 146.000000
0.156031 312.000000 122.000000 -189.000000 -268.000000 163.000000 104.000000 444.000000 1338.000000 951.000000 947.000000 531.000000 126.000000
0.157031 346.000000 68.000000 -276.000000 -217.000000 251.000000 -32.000000 453.000000 1450.000000 1044.000000 1064.000000 570.000000 122.000000
0.158032 370.000000 24.000000 -345.000000 -207.000000 312.000000 -103.000000 453.000000 1522.000000 1102.000000 1093.000000 551.000000 87.000000
0.159032 351.000000 -29.000000 -380.000000 -197.000000 358.000000 -159.000000 434.000000 1537.000000 1107.000000 1102.000000 527.000000 68.000000
0.160032 326.000000 -73.000000 -400.000000 -161.000000 366.000000 -204.000000 375.000000 1395.000000 961.000000 1078.000000 502.000000 58.000000
0.161032 312.000000 -131.000000 -444.000000 -126.000000 363.000000 -236.000000 322.000000 1170.000000 766.000000 941.000000 400.000000 0.000000
0.162032 326.000000 -180.000000 -507.000000 -90.000000 378.000000 -287.000000 252.000000 935.000000 575.000000 775.000000 302.000000 -47.000000
0.163033 322.000000 -224.000000 -546.000000 -73.000000 417.000000 -343.000000 194.000000 759.000000 419.000000 634.000000 214.000000 -91.000000
0.164033 322.000000 -253.000000 -575.000000 -48.000000 434.000000 -384.000000 150.000000 661.000000 317.000000 506.000000 136.000000 -145.000000
0.165033 287.000000 -283.000000 -570.000000 -34.000000 448.000000 -413.000000 135.000000 583.000000 214.000000 433.000000 102.000000 -150.000000
0.166033 258.000000 -330.000000 -590.000000 -2.000000 429.000000 -426.000000 135.000000 471.000000 92.000000 340.000000 39.000000 -189.000000
0.167033 224.000000 -355.000000 -580.000000 35.000000 423.000000 -461.000000 150.000000 339.000000 -43.000000 232.000000 -24.000000 -233.000000
0.168034 165.000000 -369.000000 -536.000000 64.000000 401.000000 -468.000000 169.000000 188.000000 -200.000000 124.000000 -87.000000 -272.000000
0.169034 131.000000 -360.000000 -492.000000 101.000000 350.000000 -454.000000 208.000000 60.000000 -351.000000 -2.000000 -169.000000 -319.000000
0.170034 92.000000 -384.000000 -477.000000 113.000000 311.000000 -427.000000 335.000000 40.000000 -429.000000 -114.000000 -243.000000 -372.000000
0.171034 53.000000 -389.000000 -443.000000 145.000000 284.000000 -432.000000 394.000000 -17.000000 -527.000000 -192.000000 -301.000000 -421.000000
0.172034 19.000000 -379.000000 -399.000000 167.000000 247.000000 -417.000000 452.000000 -82.000000 -610.000000 -280.000000 -369.000000 -470.000000
0.173035 0.000000 -379.000000 -379.000000 179.000000 208.000000 -390.000000 550.000000 -82.000000 -649.000000 -353.000000 -423.000000 -509.000000
0.174035 -34.000000 -355.000000 -319.000000 189.000000 189.000000 -380.000000 643.000000 -73.000000 -678.000000 -402.000000 -467.000000 -548.000000
0.175035 -68.000000 -321.000000 -251.000000 193.000000 141.000000 -339.000000 721.000000 -48.000000 -673.000000 -441.000000 -511.000000 -587.000000
0.176035 -107.000000 -286.000000 -178.000000 193.000000 90.000000 -288.000000 799.000000 -9.000000 -653.000000 -450.000000 -526.000000 -606.000000
0.177035 -146.000000 -272.000000 -125.000000 195.000000 33.000000 -233.000000 906.000000 38.000000 -629.000000 -442.000000 -535.000000 -620.000000
0.178036 -161.000000 -243.000000 -80.000000 207.000000 -11.000000 -199.000000 988.000000 68.000000 -605.000000 -432.000000 -550.000000 -645.000000
0.179036 -165.000000 -203.000000 -37.000000 200.000000 -41.000000 -162.000000 1013.000000 77.000000 -595.000000 -412.000000 -535.000000 -635.000000
0.180036 -185.000000 -139.000000 45.000000 183.000000 -65.000000 -121.000000 949.000000 72.000000 -585.000000 -393.000000 -521.000000 -625.000000
0.181036 -190.000000 -95.000000 94.000000 162.000000 -115.000000 -46.000000 876.000000 67.000000 -561.000000 -373.000000 -501.000000 -610.000000
0.182036 -190.000000 -41.000000 147.000000 142.000000 -142.000000 0.000000 852.000000 76.000000 -536.000000 -334.000000 -462.000000 -576.000000
0.183037 -185.000000 11.000000 197.000000 116.000000 -169.000000 52.000000 842.000000 90.000000 -512.000000 -301.000000 -432.000000 -555.000000
0.184037 -185.000000 65.000000 250.000000 86.000000 -191.000000 104.000000 777.000000 90.000000 -488.000000 -272.000000 -407.000000 -525.000000
0.185037 -195.000000 89.000000 285.000000 60.000000 -218.000000 158.000000 699.000000 89.000000 -468.000000 -238.000000 -368.000000 -491.000000
0.186037 -195.000000 99.000000 294.000000 52.000000 -240.000000 187.000000 646.000000 118.000000 -429.000000 -213.000000 -344.000000 -472.000000
0.187037 -170.000000 85.000000 255.000000 47.000000 -245.000000 197.000000 611.000000 153.000000 -385.000000 -166.000000 -300.000000 -438.000000
0.188038 -150.000000 105.000000 255.000000 42.000000 -213.000000 170.000000 553.000000 182.000000 -351.000000 -117.000000 -256.000000 -403.000000
0.189038 -121.000000 129.000000 250.000000 22.000000 -203.000000 180.000000 445.000000 211.000000 -312.000000 -83.000000 -232.000000 -389.000000
0.190038 -72.000000 149.000000 221.000000 -3.000000 -185.000000 191.000000 348.000000 226.000000 -285.000000 -39.000000 -192.000000 -349.000000
0.191038 -38.000000 164.000000 202.000000 -37.000000 -146.000000 186.000000 289.000000 249.000000 -256.000000 -14.000000 -172.000000 -339.000000
0.192038 -8.000000 178.000000 187.000000 -61.000000 -119.000000 183.000000 236.000000 293.000000 -207.000000 9.000000 -153.000000 -319.000000
0.193039 1.000000 193.000000 191.000000 -83.000000 -97.000000 183.000000 187.000000 317.000000 -183.000000 58.000000 -109.000000 -280.000000
0.194039 1.000000 178.000000 176.000000 -95.000000 -93.000000 193.000000 161.000000 347.000000 -154.000000 82.000000 -84.000000 -261.000000
0.195039 20.000000 188.000000 167.000000 -88.000000 -86.000000 178.000000 186.000000 409.000000 -100.000000 107.000000 -65.000000 -246.000000
0.196039 30.000000 217.000000 187.000000 -103.000000 -71.000000 178.000000 225.000000 462.000000 -61.000000 150.000000 -31.000000 -217.000000
0.197039 40.000000 242.000000 201.000000 -122.000000 -76.000000 203.000000 264.000000 516.000000 -22.000000 179.000000 -6.000000 -205.000000
0.198040 83.000000 281.000000 196.000000 -139.000000 -79.000000 222.000000 313.000000 579.000000 21.000000 213.000000 12.000000 -186.000000
0.199040 98.000000 315.000000 216.000000 -181.000000 -54.000000 240.000000 366.000000 638.000000 70.000000 252.000000 37.000000 -171.000000
0.200040 108.000000 325.000000 216.000000 -205.000000 -57.000000 267.000000 415.000000 696.000000 119.000000 286.000000 61.000000 -156.000000
0.201040 103.000000 320.000000 216.000000 -215.000000 -52.000000 272.000000 440.000000 735.000000 153.000000 335.000000 105.000000 -113.000000
0.202040 93.000000 310.000000 216.000000 -210.000000 -54.000000 270.000000 449.000000 749.000000 167.000000 360.000000 120.000000 -108.000000
0.203041 103.000000 310.000000 206.000000 -200.000000 -59.000000 265.000000 464.000000 763.000000 177.000000 368.000000 125.000000 -108.000000
0.204041 88.000000 300.000000 211.000000 -205.000000 -49.000000 260.000000 464.000000 768.000000 182.000000 383.000000 134.000000 -92.000000
0.205041 88.000000 305.000000 216.000000 -193.000000 -59.000000 257.000000 464.000000 773.000000 182.000000 388.000000 139.000000 -92.000000
0.206041 103.000000 315.000000 211.000000 -195.000000 -62.000000 262.000000 469.000000 782.000000 192.000000 387.000000 134.000000 -97.000000
0.207041 113.000000 316.000000 201.000000 -208.000000 -52.000000 266.000000 459.000000 781.000000 182.000000 397.000000 144.000000 -87.000000
0.208042 123.000000 321.000000 196.000000 -213.000000 -42.000000 261.000000 459.000000 781.000000 187.000000 392.000000 134.000000 -102.000000
0.209042 123.000000 330.000000 206.000000 -220.000000 -35.000000 261.000000 464.000000 791.000000 202.000000 392.000000 134.000000 -97.000000
0.210042 113.000000 326.000000 211.000000 -225.000000 -40.000000 271.000000 458.000000 791.000000 197.000000 406.000000 155.000000 -80.000000
0.211042 98.000000 316.000000 216.000000 -217.000000 -47.000000 271.000000 458.000000 796.000000 202.000000 401.000000 150.000000 -85.000000
0.212042 118.000000 306.000000 187.000000 -205.000000 -57.000000 268.000000 458.000000 800.000000 206.000000 406.000000 155.000000 -75.000000
0.213043 98.000000 296.000000 196.000000 -211.000000 -32.000000 249.000000 458.000000 799.000000 202.000000 421.000000 165.000000 -70.000000
0.214043 103.000000 316.000000 211.000000 -196.000000 -47.000000 249.000000 463.000000 804.000000 206.000000 411.000000 155.000000 -80.000000
0.215043 127.000000 321.000000 192.000000 -209.000000 -52.000000 266.000000 463.000000 809.000000 211.000000 416.000000 155.000000 -80.000000
0.216043 123.000000 335.000000 211.000000 -223.000000 -30.000000 258.000000 457.000000 804.000000 202.000000 420.000000 160.000000 -75.000000
0.217043 118.000000 345.000000 226.000000 -228.000000 -42.000000 276.000000 457.000000 808.000000 211.000000 410.000000 150.000000 -89.000000
0.218044 132.000000 335.000000 201.000000 -231.000000 -52.000000 288.000000 457.000000 803.000000 211.000000 420.000000 160.000000 -79.000000
0.219044 123.000000 321.000000 197.000000 -233.000000 -32.000000 271.000000 452.000000 793.000000 206.000000 420.000000 160.000000 -79.000000
0.220044 98.000000 316.000000 217.000000 -221.000000 -35.000000 261.000000 462.000000 807.000000 216.000000 415.000000 155.000000 -84.000000
0.221044 108.000000 322.000000 212.000000 -206.000000 -57.000000 269.000000 457.000000 807.000000 211.000000 430.000000 169.000000 -69.000000
0.222044 123.000000 322.000000 197.000000 -214.000000 -49.000000 269.000000 457.000000 807.000000 211.000000 429.000000 165.000000 -74.000000
0.223045 123.000000 327.000000 202.000000 -221.000000 -35.000000 262.000000 457.000000 807.000000 211.000000 424.000000 160.000000 -74.000000
0.224045 127.000000 336.000000 207.000000 -223.000000 -37.000000 267.000000 457.000000 806.000000 206.000000 424.000000 161.000000 -72.000000
0.225045 127.000000 336.000000 207.000000 -231.000000 -37.000000 274.000000 452.000000 806.000000 211.000000 418.000000 156.000000 -82.000000
0.226045 127.000000 346.000000 217.000000 -231.000000 -37.000000 274.000000 451.000000 806.000000 216.000000 418.000000 156.000000 -82.000000
0.227045 118.000000 336.000000 218.000000 -236.000000 -42.000000 284.000000 446.000000 801.000000 211.000000 428.000000 166.000000 -67.000000
0.228046 123.000000 323.000000 198.000000 -226.000000 -47.000000 279.000000 446.000000 800.000000 211.000000 423.000000 166.000000 -72.000000
0.229046 118.000000 323.000000 203.000000 -221.000000 -35.000000 262.000000 446.000000 800.000000 211.000000 423.000000 170.000000 -72.000000
0.230046 118.000000 323.000000 203.000000 -218.000000 -40.000000 264.000000 446.000000 804.000000 211.000000 428.000000 166.000000 -67.000000
0.231046 118.000000 342.000000 223.000000 -218.000000 -40.000000 264.000000 451.000000 809.000000 216.000000 423.000000 167.000000 -71.000000
0.232046 118.000000 357.000000 238.000000 -228.000000 -49.000000 284.000000 446.000000 804.000000 206.000000 433.000000 171.000000 -66.000000
0.233047 142.000000 352.000000 208.000000 -236.000000 -57.000000 299.000000 437.000000 794.000000 202.000000 423.000000 167.000000 -71.000000
0.234047 142.000000 342.000000 198.000000 -245.000000 -30.000000 281.000000 441.000000 794.000000 202.000000 418.000000 157.000000 -76.000000
0.235047 113.000000 328.000000 213.000000 -240.000000 -25.000000 272.000000 441.000000 798.000000 211.000000 422.000000 162.000000 -76.000000
0.236047 118.000000 318.000000 198.000000 -218.000000 -49.000000 272.000000 441.000000 803.000000 216.000000 432.000000 176.000000 -62.000000
0.237047 113.000000 318.000000 203.000000 -216.000000 -39.000000 259.000000 446.000000 808.000000 217.000000 432.000000 176.000000 -57.000000
0.238048 108.000000 342.000000 233.000000 -214.000000 -44.000000 262.000000 446.000000 803.000000 212.000000 436.000000 186.000000 -50.000000
0.239048 118.000000 352.000000 233.000000 -223.000000 -61.000000 289.000000 446.000000 797.000000 207.000000 432.000000 176.000000 -64.000000
0.240048 132.000000 352.000000 218.000000 -233.000000 -56.000000 294.000000 437.000000 792.000000 203.000000 427.000000 171.000000 -74.000000
0.241048 132.000000 362.000000 228.000000 -240.000000 -42.000000 286.000000 432.000000 787.000000 198.000000 426.000000 171.000000 -69.000000
0.242048 142.000000 352.000000 208.000000 -245.000000 -46.000000 296.000000 431.000000 796.000000 212.000000 421.000000 171.000000 -69.000000
0.243049 137.000000 362.000000 224.000000 -245.000000 -32.000000 282.000000 421.000000 791.000000 207.000000 440.000000 181.000000 -60.000000
0.244049 123.000000 347.000000 224.000000 -248.000000 -42.000000 295.000000 426.000000 787.000000 203.000000 430.000000 181.000000 -55.000000
0.245049 108.000000 323.000000 214.000000 -233.000000 -49.000000 287.000000 426.000000 787.000000 207.000000 430.000000 181.000000 -54.000000
0.246049 118.000000 342.000000 224.000000 -214.000000 -51.000000 270.000000 426.000000 786.000000 207.000000 434.000000 181.000000 -49.000000
0.247049 123.000000 367.000000 243.000000 -228.000000 -51.000000 285.000000 436.000000 795.000000 212.000000 434.000000 181.000000 -54.000000
0.248050 137.000000 352.000000 214.000000 -244.000000 -59.000000 307.000000 425.000000 795.000000 212.000000 439.000000 191.000000 -49.000000
0.249050 147.000000 363.000000 214.000000 -244.000000 -37.000000 285.000000 410.000000 776.000000 193.000000 439.000000 186.000000 -54.000000
0.250050 147.000000 368.000000 219.000000 -254.000000 -32.000000 290.000000 415.000000 785.000000 207.000000 420.000000 167.000000 -68.000000
0.251050 147.000000 358.000000 209.000000 -256.000000 -34.000000 296.000000 420.000000 789.000000 212.000000 439.000000 186.000000 -49.000000
0.252050 137.000000 353.000000 214.000000 -251.000000 -29.000000 286.000000 410.000000 779.000000 207.000000 444.000000 192.000000 -47.000000
0.253051 118.000000 363.000000 243.000000 -244.000000 -37.000000 286.000000 415.000000 788.000000 217.000000 439.000000 192.000000 -42.000000
0.254051 127.000000 358.000000 229.000000 -239.000000 -61.000000 305.000000 415.000000 788.000000 212.000000 453.000000 202.000000 -27.000000
0.255051 132.000000 353.000000 219.000000 -241.000000 -49.000000 296.000000 410.000000 779.000000 198.000000 448.000000 197.000000 -27.000000
0.256051 137.000000 368.000000 229.000000 -241.000000 -42.000000 288.000000 410.000000 784.000000 203.000000 438.000000 187.000000 -52.000000
0.257051 147.000000 377.000000 229.000000 -251.000000 -44.000000 301.000000 410.000000 783.000000 203.000000 438.000000 192.000000 -42.000000
0.258052 152.000000 382.000000 229.000000 -261.000000 -39.000000 305.000000 404.000000 778.000000 203.000000 438.000000 192.000000 -42.000000
0.259052 152.000000 377.000000 224.000000 -267.000000 -37.000000 308.000000 404.000000 783.000000 212.000000 433.000000 192.000000 -41.000000
0.260052 137.000000 387.000000 248.000000 -264.000000 -34.000000 303.000000 399.000000 783.000000 217.000000 442.000000 202.000000 -26.000000
0.261052 123.000000 377.000000 253.000000 -262.000000 -54.000000 320.000000 399.000000 782.000000 222.000000 452.000000 207.000000 -26.000000
0.262052 127.000000 363.000000 234.000000 -250.000000 -64.000000 318.000000 399.000000 782.000000 217.000000 457.000000 216.000000 -21.000000
0.263053 137.000000 378.000000 239.000000 -245.000000 -51.000000 301.000000 399.000000 776.000000 212.000000 457.000000 216.000000 -21.000000
0.264053 142.000000 383.000000 239.000000 -257.000000 -49.000000 310.000000 399.000000 781.000000 217.000000 451.000000 211.000000 -26.000000
0.265053 147.000000 388.000000 239.000000 -262.000000 -46.000000 314.000000 395.000000 781.000000 212.000000 451.000000 207.000000 -26.000000
0.266053 152.000000 408.000000 253.000000 -267.000000 -44.000000 316.000000 395.000000 776.000000 217.000000 451.000000 208.000000 -19.000000
0.267053 152.000000 422.000000 269.000000 -279.000000 -49.000000 333.000000 395.000000 785.000000 227.000000 451.000000 217.000000 -24.000000
0.268054 162.000000 413.000000 249.000000 -286.000000 -56.000000 348.000000 390.000000 780.000000 222.000000 466.000000 227.000000 -10.000000
0.269054 157.000000 399.000000 240.000000 -286.000000 -42.000000 333.000000 380.000000 770.000000 222.000000 461.000000 222.000000 -10.000000
0.270054 142.000000 399.000000 254.000000 -277.000000 -39.000000 321.000000 380.000000 775.000000 227.000000 461.000000 227.000000 -10.000000
0.271054 147.000000 399.000000 249.000000 -269.000000 -54.000000 328.000000 385.000000 784.000000 232.000000 471.000000 237.000000 0.000000
0.272054 157.000000 409.000000 249.000000 -272.000000 -49.000000 326.000000 385.000000 779.000000 227.000000 475.000000 243.000000 1.000000
0.273055 166.000000 418.000000 249.000000 -281.000000 -44.000000 331.000000 385.000000 783.000000 232.000000 470.000000 238.000000 1.000000
0.274055 176.000000 428.000000 249.000000 -291.000000 -39.000000 336.000000 379.000000 778.000000 232.000000 474.000000 243.000000 6.000000
0.275055 166.000000 457.000000 289.000000 -301.000000 -34.000000 341.000000 374.000000 782.000000 242.000000 474.000000 243.000000 6.000000
0.276055 171.000000 453.000000 280.000000 -311.000000 -59.000000 375.000000 374.000000 787.000000 251.000000 479.000000 253.000000 16.000000
0.277055 176.000000 448.000000 270.000000 -311.000000 -51.000000 367.000000 364.000000 782.000000 242.000000 489.000000 262.000000 25.000000
0.278056 162.000000 443.000000 280.000000 -311.000000 -44.000000 360.000000 369.000000 792.000000 256.000000 479.000000 253.000000 25.000000
0.279056 157.000000 423.000000 265.000000 -301.000000 -56.000000 363.000000 364.000000 791.000000 251.000000 499.000000 277.000000 36.000000
0.280056 166.000000 433.000000 265.000000 -289.000000 -51.000000 345.000000 358.000000 786.000000 247.000000 498.000000 272.000000 31.000000
0.281056 176.000000 457.000000 280.000000 -299.000000 -46.000000 350.000000 363.000000 801.000000 266.000000 493.000000 267.000000 27.000000
0.282056 182.000000 477.000000 294.000000 -316.000000 -49.000000 370.000000 358.000000 796.000000 266.000000 508.000000 287.000000 46.000000
0.283057 202.000000 477.000000 275.000000 -329.000000 -54.000000 387.000000 354.000000 795.000000 266.000000 511.000000 287.000000 41.000000
0.284057 206.000000 487.000000 280.000000 -339.000000 -34.000000 377.000000 354.000000 800.000000 278.000000 511.000000 287.000000 41.000000
0.285057 202.000000 482.000000 280.000000 -346.000000 -34.000000 384.000000 349.000000 804.000000 288.000000 526.000000 296.000000 51.000000
0.286057 197.000000 482.000000 284.000000 -341.000000 -37.000000 382.000000 344.000000 809.000000 292.000000 531.000000 301.000000 57.000000
0.287057 187.000000 482.000000 294.000000 -339.000000 -42.000000 385.000000 349.000000 819.000000 302.000000 536.000000 311.000000 67.000000
0.288058 187.000000 487.000000 299.000000 -334.000000 -51.000000 390.000000 344.000000 819.000000 297.000000 555.000000 321.000000 76.000000
0.289058 211.000000 492.000000 280.000000 -336.000000 -54.000000 395.000000 349.000000 823.000000 302.000000 550.000000 316.000000 62.000000
0.290058 216.000000 512.000000 294.000000 -351.000000 -32.000000 388.000000 348.000000 833.000000 317.000000 555.000000 326.000000 76.000000
0.291058 226.000000 532.000000 304.000000 -363.000000 -37.000000 405.000000 343.000000 842.000000 322.000000 570.000000 335.000000 81.000000
0.292058 226.000000 532.000000 305.000000 -378.000000 -37.000000 420.000000 348.000000 852.000000 331.000000 575.000000 335.000000 86.000000
0.293059 211.000000 537.000000 324.000000 -378.000000 -37.000000 420.000000 348.000000 852.000000 341.000000 579.000000 341.000000 93.000000
0.294059 216.000000 527.000000 310.000000 -373.000000 -54.000000 432.000000 343.000000 856.000000 341.000000 589.000000 351.000000 103.000000
0.295059 216.000000 522.000000 305.000000 -370.000000 -45.000000 421.000000 353.000000 865.000000 356.000000 589.000000 351.000000 98.000000
0.296059 206.000000 532.000000 324.000000 -368.000000 -43.000000 416.000000 357.000000 874.000000 361.000000 608.000000 366.000000 117.000000
0.297059 216.000000 527.000000 310.000000 -368.000000 -57.000000 430.000000 362.000000 879.000000 366.000000 603.000000 366.000000 108.000000
0.298060 231.000000 532.000000 300.000000 -370.000000 -45.000000 421.000000 367.000000 894.000000 375.000000 613.000000 366.000000 108.000000
0.299060 231.000000 556.000000 324.000000 -380.000000 -33.000000 418.000000 362.000000 894.000000 375.000000 617.000000 376.000000 117.000000
0.300060 250.000000 561.000000 310.000000 -392.000000 -45.000000 443.000000 372.000000 908.000000 395.000000 617.000000 371.000000 113.000000
0.301060 246.000000 551.000000 305.000000 -404.000000 -28.000000 438.000000 372.000000 908.000000 405.000000 631.000000 385.000000 123.000000
0.302060 236.000000 546.000000 310.000000 -397.000000 -28.000000 430.000000 377.000000 917.000000 405.000000 635.000000 385.000000 128.000000
0.303061 216.000000 537.000000 320.000000 -390.000000 -35.000000 430.000000 387.000000 932.000000 424.000000 635.000000 390.000000 128.000000
0.304061 221.000000 528.000000 305.000000 -375.000000 -50.000000 430.000000 392.000000 941.000000 429.000000 650.000000 400.000000 133.000000
0.305061 216.000000 533.000000 315.000000 -373.000000 -40.000000 418.000000 401.000000 940.000000 429.000000 655.000000 405.000000 138.000000
0.306061 226.000000 557.000000 329.000000 -373.000000 -47.000000 426.000000 410.000000 955.000000 434.000000 650.000000 395.000000 128.000000
0.307061 246.000000 567.000000 320.000000 -390.000000 -50.000000 445.000000 415.000000 959.000000 439.000000 655.000000 401.000000 130.000000
0.308062 250.000000 581.000000 329.000000 -404.000000 -35.000000 445.000000 410.000000 954.000000 439.000000 665.000000 411.000000 140.000000
0.309062 255.000000 591.000000 334.000000 -414.000000 -38.000000 458.000000 420.000000 969.000000 453.000000 660.000000 401.000000 130.000000
0.310062 246.000000 586.000000 339.000000 -422.000000 -38.000000 466.000000 420.000000 974.000000 458.000000 679.000000 416.000000 140.000000
0.311062 241.000000 578.000000 334.000000 -414.000000 -45.000000 466.000000 425.000000 974.000000 458.000000 674.000000 416.000000 135.000000
0.312062 231.000000 558.000000 324.000000 -407.000000 -45.000000 458.000000 429.000000 983.000000 463.000000 678.000000 411.000000 140.000000
0.313063 221.000000 548.000000 324.000000 -392.000000 -45.000000 444.000000 438.000000 982.000000 458.000000 678.000000 416.000000 140.000000
0.314063 221.000000 543.000000 320.000000 -382.000000 -50.000000 439.000000 458.000000 992.000000 468.000000 668.000000 407.000000 126.000000
0.315063 246.000000 558.000000 310.000000 -380.000000 -47.000000 434.000000 463.000000 1007.000000 478.000000 678.000000 407.000000 126.000000
0.316063 246.000000 578.000000 330.000000 -400.000000 -30.000000 436.000000 468.000000 1006.000000 473.000000 683.000000 412.000000 126.000000
0.317063 236.000000 568.000000 330.000000 -409.000000 -40.000000 456.000000 477.000000 1006.000000 473.000000 678.000000 397.000000 116.000000
0.318064 231.000000 548.000000 316.000000 -401.000000 -45.000000 451.000000 482.000000 1000.000000 473.000000 672.000000 402.000000 116.000000
0.319064 221.000000 548.000000 325.000000 -388.000000 -40.000000 434.000000 492.000000 1005.000000 473.000000 667.000000 392.000000 107.000000
0.320064 202.000000 529.000000 325.000000 -383.000000 -50.000000 439.000000 507.000000 1010.000000 473.000000 663.000000 382.000000 107.000000
0.321064 197.000000 514.000000 316.000000 -364.000000 -60.000000 429.000000 516.000000 1010.000000 463.000000 663.000000 382.000000 109.000000
0.322064 192.000000 504.000000 311.000000 -354.000000 -57.000000 417.000000 525.000000 1005.000000 453.000000 657.000000 373.000000 89.000000
0.323065 187.000000 524.000000 335.000000 -347.000000 -57.000000 409.000000 530.000000 1000.000000 449.000000 642.000000 358.000000 70.000000
0.324065 197.000000 529.000000 331.000000 -354.000000 -72.000000 431.000000 545.000000 999.000000 439.000000 637.000000 353.000000 70.000000
0.325065 197.000000 524.000000 326.000000 -362.000000 -65.000000 431.000000 554.000000 994.000000 429.000000 623.000000 338.000000 60.000000
0.326065 197.000000 509.000000 312.000000 -359.000000 -62.000000 427.000000 559.000000 989.000000 424.000000 608.000000 319.000000 40.000000
0.327065 167.000000 504.000000 336.000000 -352.000000 -55.000000 412.000000 559.000000 973.000000 410.000000 608.000000 319.000000 50.000000
0.328066 148.000000 456.000000 307.000000 -335.000000 -82.000000 422.000000 569.000000 973.000000 405.000000 588.000000 309.000000 37.000000
0.329066 158.000000 446.000000 287.000000 -301.000000 -77.000000 383.000000 579.000000 968.000000 395.000000 584.000000 299.000000 28.000000
0.330066 153.000000 446.000000 292.000000 -302.000000 -62.000000 368.000000 589.000000 968.000000 390.000000 569.000000 285.000000 23.000000
0.331066 153.000000 465.000000 312.000000 -299.000000 -67.000000 371.000000 598.000000 968.000000 381.000000 563.000000 280.000000 13.000000
0.332066 158.000000 471.000000 312.000000 -309.000000 -77.000000 391.000000 598.000000 958.000000 372.000000 558.000000 275.000000 13.000000
0.333067 148.000000 461.000000 312.000000 -314.000000 -74.000000 393.000000 594.000000 948.000000 357.000000 543.000000 256.000000 -6.000000
0.334067 143.000000 457.000000 312.000000 -304.000000 -79.000000 388.000000 594.000000 943.000000 357.000000 524.000000 246.000000 -21.000000
0.335067 158.000000 461.000000 302.000000 -299.000000 -82.000000 386.000000 589.000000 928.000000 337.000000 529.000000 252.000000 -9.000000
0.336067 128.000000 427.000000 297.000000 -309.000000 -69.000000 384.000000 584.000000 918.000000 332.000000 509.000000 232.000000 -29.000000
0.337067 119.000000 413.000000 292.000000 -277.000000 -82.000000 364.000000 589.000000 918.000000 323.000000 500.000000 227.000000 -34.000000
0.338068 119.000000 413.000000 292.000000 -265.000000 -84.000000 354.000000 588.000000 913.000000 313.000000 499.000000 227.000000 -29.000000
0.339068 109.000000 398.000000 287.000000 -265.000000 -84.000000 355.000000 588.000000 917.000000 313.000000 489.000000 217.000000 -43.000000
0.340068 119.000000 408.000000 288.000000 -253.000000 -86.000000 346.000000 583.000000 901.000000 298.000000 484.000000 208.000000 -48.000000
0.341068 138.000000 413.000000 274.000000 -262.000000 -82.000000 350.000000 583.000000 891.000000 289.000000 463.000000 198.000000 -57.000000
0.342068 124.000000 413.000000 288.000000 -275.000000 -65.000000 346.000000 573.000000 891.000000 293.000000 459.000000 188.000000 -62.000000
0.343069 124.000000 408.000000 284.000000 -267.000000 -79.000000 353.000000 568.000000 882.000000 284.000000 459.000000 193.000000 -57.000000
0.344069 119.000000 393.000000 274.000000 -265.000000 -77.000000 348.000000 562.000000 872.000000 269.000000 449.000000 183.000000 -62.000000
0.345069 104.000000 380.000000 274.000000 -255.000000 -74.000000 336.000000 562.000000 877.000000 274.000000 439.000000 174.000000 -72.000000
0.346069 109.000000 375.000000 264.000000 -241.000000 -82.000000 328.000000 552.000000 871.000000 264.000000 439.000000 183.000000 -62.000000
0.347069 104.000000 370.000000 264.000000 -241.000000 -74.000000 321.000000 552.000000 866.000000 254.000000 429.000000 169.000000 -77.000000
0.348070 114.000000 380.000000 264.000000 -236.000000 -77.000000 319.000000 552.000000 866.000000 254.000000 424.000000 165.000000 -80.000000
0.349070 124.000000 380.000000 254.000000 -245.000000 -72.000000 324.000000 548.000000 856.000000 245.000000 424.000000 165.000000 -80.000000
0.350070 114.000000 380.000000 264.000000 -250.000000 -62.000000 319.000000 543.000000 850.000000 245.000000 418.000000 155.000000 -89.000000
0.351070 114.000000 389.000000 274.000000 -245.000000 -72.000000 324.000000 538.000000 849.000000 245.000000 409.000000 155.000000 -89.000000
0.352070 109.000000 356.000000 245.000000 -250.000000 -77.000000 333.000000 528.000000 840.000000 230.000000 414.000000 155.000000 -89.000000
0.353071 99.000000 346.000000 245.000000 -232.000000 -67.000000 303.000000 528.000000 840.000000 230.000000 399.000000 145.000000 -89.000000
0.354071 94.000000 351.000000 254.000000 -222.000000 -71.000000 298.000000 532.000000 849.000000 240.000000 399.000000 145.000000 -89.000000
0.355071 104.000000 337.000000 230.000000 -222.000000 -79.000000 305.000000 532.000000 840.000000 230.000000 409.000000 151.000000 -83.000000
0.356071 104.000000 351.000000 245.000000 -220.000000 -62.000000 286.000000 532.000000 835.000000 225.000000 394.000000 141.000000 -93.000000
0.357071 104.000000 361.000000 254.000000 -227.000000 -69.000000 300.000000 527.000000 834.000000 220.000000 393.000000 137.000000 -93.000000
0.358072 119.000000 361.000000 240.000000 -232.000000 -74.000000 310.000000 517.000000 829.000000 215.000000 388.000000 137.000000 -108.000000
0.359072 128.000000 356.000000 225.000000 -239.000000 -59.000000 303.000000 512.000000 829.000000 215.000000 383.000000 127.000000 -103.000000
0.360072 109.000000 356.000000 245.000000 -242.000000 -47.000000 293.000000 512.000000 824.000000 220.000000 387.000000 137.000000 -98.000000
0.361072 104.000000 341.000000 235.000000 -232.000000 -67.000000 303.000000 508.000000 828.000000 225.000000 387.000000 141.000000 -98.000000
0.362072 89.000000 337.000000 245.000000 -222.000000 -64.000000 290.000000 508.000000 823.000000 215.000000 392.000000 141.000000 -91.000000
0.363073 89.000000 341.000000 249.000000 -212.000000 -76.000000 293.000000 512.000000 822.000000 206.000000 382.000000 132.000000 -91.000000
0.364073 104.000000 327.000000 221.000000 -215.000000 -79.000000 298.000000 508.000000 817.000000 206.000000 377.000000 127.000000 -111.000000
0.365073 109.000000 341.000000 231.000000 -215.000000 -57.000000 276.000000 508.000000 817.000000 206.000000 377.000000 127.000000 -106.000000
0.366073 109.000000 351.000000 241.000000 -224.000000 -59.000000 288.000000 503.000000 812.000000 196.000000 377.000000 122.000000 -111.000000
0.367073 109.000000 351.000000 241.000000 -229.000000 -64.000000 298.000000 508.000000 817.000000 210.000000 368.000000 117.000000 -116.000000
0.368074 104.000000 337.000000 231.000000 -229.000000 -64.000000 298.000000 503.000000 811.000000 206.000000 382.000000 137.000000 -101.000000
0.369074 99.000000 337.000000 236.000000 -220.000000 -62.000000 286.000000 503.000000 806.000000 201.000000 377.000000 132.000000 -100.000000
0.370074 99.000000 332.000000 231.000000 -217.000000 -67.000000 288.000000 507.000000 811.000000 206.000000 367.000000 127.000000 -100.000000
0.371074 99.000000 327.000000 226.000000 -215.000000 -64.000000 283.000000 502.000000 806.000000 196.000000 372.000000 137.000000 -95.000000
0.372074 89.000000 337.000000 247.000000 -212.000000 -62.000000 278.000000 502.000000 805.000000 191.000000 367.000000 127.000000 -100.000000
0.373075 94.000000 342.000000 247.000000 -212.000000 -76.000000 293.000000 502.000000 805.000000 191.000000 357.000000 122.000000 -105.000000
0.374075 119.000000 347.000000 227.000000 -217.000000 -74.000000 295.000000 502.000000 799.000000 191.000000 357.000000 117.000000 -110.000000
0.375075 119.000000 347.000000 227.000000 -232.000000 -52.000000 289.000000 497.000000 799.000000 196.000000 362.000000 122.000000 -115.000000
0.376075 109.000000 347.000000 237.000000 -232.000000 -52.000000 289.000000 501.000000 799.000000 196.000000 361.000000 123.000000 -108.000000
0.377075 94.000000 342.000000 247.000000 -227.000000 -62.000000 294.000000 496.000000 795.000000 196.000000 366.000000 133.000000 -93.000000
0.378076 99.000000 333.000000 232.000000 -217.000000 -74.000000 296.000000 496.000000 799.000000 203.000000 361.000000 128.000000 -98.000000
0.379076 94.000000 328.000000 232.000000 -215.000000 -64.000000 284.000000 501.000000 798.000000 198.000000 370.000000 138.000000 -88.000000
0.380076 94.000000 338.000000 242.000000 -210.000000 -67.000000 282.000000 491.000000 789.000000 188.000000 365.000000 133.000000 -88.000000
0.381076 94.000000 352.000000 256.000000 -215.000000 -71.000000 291.000000 501.000000 798.000000 198.000000 355.000000 123.000000 -103.000000
0.382076 109.000000 367.000000 256.000000 -222.000000 -79.000000 306.000000 496.000000 789.000000 188.000000 365.000000 133.000000 -93.000000
0.383077 124.000000 372.000000 247.000000 -237.000000 -71.000000 314.000000 491.000000 783.000000 188.000000 360.000000 123.000000 -102.000000
0.384077 119.000000 382.000000 261.000000 -246.000000 -59.000000 312.000000 496.000000 788.000000 198.000000 355.000000 118.000000 -107.000000
0.385077 109.000000 357.000000 247.000000 -249.000000 -69.000000 324.000000 481.000000 772.000000 183.000000 370.000000 133.000000 -87.000000
0.386077 104.000000 338.000000 232.000000 -232.000000 -67.000000 305.000000 480.000000 772.000000 188.000000 355.000000 123.000000 -97.000000
0.387077 89.000000 329.000000 237.000000 -220.000000 -62.000000 288.000000 490.000000 782.000000 193.000000 360.000000 128.000000 -92.000000
0.388078 89.000000 339.000000 247.000000 -208.000000 -71.000000 285.000000 490.000000 782.000000 188.000000 370.000000 138.000000 -82.000000
0.389078 109.000000 343.000000 233.000000 -213.000000 -76.000000 295.000000 495.000000 787.000000 193.000000 364.000000 133.000000 -92.000000
0.390078 109.000000 373.000000 262.000000 -225.000000 -59.000000 290.000000 495.000000 786.000000 188.000000 369.000000 143.000000 -80.000000
0.391078 119.000000 363.000000 243.000000 -240.000000 -74.000000 319.000000 485.000000 771.000000 183.000000 364.000000 139.000000 -85.000000
0.392078 124.000000 373.000000 248.000000 -240.000000 -59.000000 305.000000 480.000000 766.000000 178.000000 359.000000 134.000000 -95.000000
0.393079 124.000000 383.000000 257.000000 -247.000000 -59.000000 312.000000 480.000000 771.000000 188.000000 359.000000 139.000000 -90.000000
0.394079 114.000000 384.000000 267.000000 -252.000000 -64.000000 322.000000 480.000000 770.000000 183.000000 364.000000 139.000000 -80.000000
0.395079 94.000000 349.000000 252.000000 -247.000000 -74.000000 327.000000 475.000000 770.000000 188.000000 363.000000 148.000000 -75.000000
0.396079 94.000000 349.000000 252.000000 -221.000000 -76.000000 302.000000 475.000000 764.000000 178.000000 368.000000 143.000000 -75.000000
0.397079 99.000000 359.000000 257.000000 -221.000000 -76.000000 303.000000 480.000000 769.000000 183.000000 363.000000 144.000000 -79.000000
0.398080 109.000000 359.000000 248.000000 -228.000000 -76.000000 311.000000 480.000000 774.000000 188.000000 363.000000 140.000000 -94.000000
0.399080 114.000000 379.000000 262.000000 -233.000000 -67.000000 306.000000 485.000000 774.000000 188.000000 371.000000 154.000000 -70.000000
0.400080 133.000000 379.000000 243.000000 -246.000000 -71.000000 323.000000 480.000000 774.000000 188.000000 371.000000 149.000000 -79.000000
0.401080 128.000000 379.000000 248.000000 -256.000000 -52.000000 313.000000 466.000000 768.000000 188.000000 367.000000 144.000000 -79.000000
0.402080 114.000000 384.000000 267.000000 -253.000000 -57.000000 315.000000 469.000000 763.000000 188.000000 367.000000 149.000000 -74.000000
0.403081 114.000000 369.000000 252.000000 -248.000000 -74.000000 328.000000 474.000000 773.000000 198.000000 371.000000 154.000000 -74.000000
0.404081 109.000000 359.000000 248.000000 -241.000000 -67.000000 313.000000 465.000000 768.000000 188.000000 381.000000 164.000000 -58.000000
0.405081 109.000000 364.000000 252.000000 -234.000000 -67.000000 306.000000 469.000000 767.000000 188.000000 371.000000 154.000000 -72.000000
0.406081 124.000000 374.000000 248.000000 -236.000000 -69.000000 311.000000 479.000000 772.000000 193.000000 371.000000 154.000000 -72.000000
0.407081 128.000000 374.000000 243.000000 -248.000000 -59.000000 313.000000 469.000000 766.000000 188.000000 376.000000 164.000000 -63.000000
0.408082 133.000000 393.000000 257.000000 -251.000000 -54.000000 311.000000 464.000000 771.000000 188.000000 375.000000 154.000000 -72.000000
0.409082 133.000000 403.000000 267.000000 -263.000000 -59.000000 328.000000 468.000000 776.000000 203.000000 375.000000 149.000000 -77.000000
0.410082 128.000000 384.000000 252.000000 -268.000000 -64.000000 337.000000 464.000000 771.000000 198.000000 390.000000 169.000000 -62.000000
0.411082 114.000000 359.000000 243.000000 -256.000000 -59.000000 320.000000 459.000000 771.000000 193.000000 380.000000 164.000000 -67.000000
0.412082 109.000000 364.000000 252.000000 -236.000000 -63.000000 303.000000 468.000000 780.000000 208.000000 380.000000 164.000000 -67.000000
0.413083 109.000000 359.000000 249.000000 -236.000000 -70.000000 311.000000 473.000000 785.000000 208.000000 395.000000 179.000000 -52.000000
0.414083 119.000000 365.000000 244.000000 -234.000000 -68.000000 306.000000 473.000000 785.000000 203.000000 395.000000 174.000000 -57.000000
0.415083 124.000000 375.000000 249.000000 -241.000000 -60.000000 306.000000 468.000000 789.000000 208.000000 389.000000 174.000000 -67.000000
0.416083 143.000000 404.000000 258.000000 -248.000000 -60.000000 313.000000 468.000000 784.000000 208.000000 389.000000 169.000000 -62.000000
0.417083 138.000000 404.000000 263.000000 -273.000000 -55.000000 332.000000 473.000000 788.000000 212.000000 394.000000 170.000000 -69.000000
0.418084 133.000000 389.000000 253.000000 -270.000000 -60.000000 335.000000 463.000000 783.000000 212.000000 398.000000 175.000000 -60.000000
0.419084 124.000000 375.000000 249.000000 -261.000000 -58.000000 324.000000 463.000000 787.000000 217.000000 398.000000 180.000000 -55.000000
0.420084 119.000000 365.000000 244.000000 -248.000000 -60.000000 314.000000 472.000000 797.000000 222.000000 398.000000 180.000000 -60.000000
0.421084 109.000000 370.000000 259.000000 -241.000000 -60.000000 307.000000 472.000000 797.000000 217.000000 407.000000 184.000000 -50.000000
0.422084 109.000000 365.000000 254.000000 -239.000000 -72.000000 316.000000 472.000000 802.000000 222.000000 407.000000 189.000000 -55.000000
0.423085 129.000000 375.000000 245.000000 -236.000000 -70.000000 312.000000 477.000000 801.000000 222.000000 407.000000 184.000000 -60.000000
0.424085 144.000000 389.000000 245.000000 -252.000000 -55.000000 312.000000 472.000000 796.000000 217.000000 407.000000 184.000000 -49.000000
0.425085 134.000000 389.000000 254.000000 -266.000000 -48.000000 319.000000 467.000000 801.000000 223.000000 403.000000 180.000000 -59.000000
0.426085 120.000000 389.000000 269.000000 -262.000000 -58.000000 324.000000 467.000000 806.000000 233.000000 407.000000 180.000000 -59.000000
0.427085 120.000000 380.000000 259.000000 -254.000000 -72.000000 332.000000 467.000000 800.000000 228.000000 417.000000 189.000000 -49.000000
0.428086 115.000000 361.000000 245.000000 -249.000000 -68.000000 322.000000 467.000000 810.000000 238.000000 406.000000 180.000000 -49.000000
0.429086 120.000000 366.000000 245.000000 -237.000000 -63.000000 305.000000 472.000000 814.000000 238.000000 416.000000 189.000000 -54.000000
0.430086 120.000000 376.000000 254.000000 -242.000000 -60.000000 308.000000 472.000000 814.000000 238.000000 421.000000 189.000000 -54.000000
0.431086 125.000000 376.000000 250.000000 -247.000000 -65.000000 317.000000 472.000000 819.000000 243.000000 416.000000 190.000000 -47.000000
0.432086 139.000000 386.000000 245.000000 -249.000000 -60.000000 315.000000 472.000000 814.000000 233.000000 421.000000 195.000000 -52.000000
0.433087 149.000000 400.000000 250.000000 -262.000000 -50.000000 317.000000 477.000000 819.000000 243.000000 411.000000 185.000000 -62.000000
0.434087 139.000000 395.000000 254.000000 -274.000000 -48.000000 327.000000 466.000000 819.000000 243.000000 415.000000 181.000000 -62.000000
0.435087 134.000000 406.000000 269.000000 -266.000000 -55.000000 327.000000 462.000000 813.000000 238.000000 415.000000 195.000000 -52.000000
0.436087 120.000000 372.000000 250.000000 -269.000000 -65.000000 339.000000 462.000000 813.000000 238.000000 415.000000 190.000000 -57.000000
0.437087 110.000000 352.000000 241.000000 -245.000000 -63.000000 313.000000 457.000000 813.000000 238.000000 414.000000 190.000000 -57.000000
0.438088 115.000000 357.000000 241.000000 -230.000000 -63.000000 298.000000 476.000000 826.000000 248.000000 409.000000 191.000000 -51.000000
0.439088 115.000000 362.000000 246.000000 -235.000000 -60.000000 300.000000 481.000000 831.000000 248.000000 424.000000 196.000000 -51.000000
0.440088 115.000000 367.000000 251.000000 -237.000000 -63.000000 305.000000 475.000000 825.000000 238.000000 424.000000 196.000000 -51.000000
0.441088 139.000000 382.000000 241.000000 -240.000000 -65.000000 311.000000 475.000000 825.000000 243.000000 414.000000 191.000000 -61.000000
0.442088 139.000000 382.000000 241.000000 -259.000000 -48.000000 314.000000 480.000000 830.000000 248.000000 414.000000 186.000000 -65.000000
0.443089 134.000000 387.000000 251.000000 -259.000000 -48.000000 314.000000 470.000000 820.000000 238.000000 424.000000 191.000000 -56.000000
0.444089 125.000000 387.000000 260.000000 -259.000000 -55.000000 321.000000 475.000000 830.000000 248.000000 414.000000 191.000000 -56.000000
0.445089 120.000000 367.000000 246.000000 -254.000000 -65.000000 326.000000 475.000000 835.000000 253.000000 424.000000 196.000000 -49.000000
0.446089 115.000000 362.000000 246.000000 -242.000000 -60.000000 309.000000 470.000000 824.000000 243.000000 424.000000 191.000000 -54.000000
0.447089 120.000000 362.000000 241.000000 -237.000000 -63.000000 306.000000 475.000000 829.000000 243.000000 413.000000 186.000000 -63.000000
0.448090 129.000000 362.000000 231.000000 -240.000000 -58.000000 304.000000 485.000000 834.000000 248.000000 413.000000 186.000000 -54.000000
0.449090 134.000000 372.000000 236.000000 -245.000000 -48.000000 299.000000 475.000000 823.000000 238.000000 413.000000 186.000000 -63.000000
0.450090 139.000000 377.000000 236.000000 -252.000000 -48.000000 306.000000 479.000000 833.000000 243.000000 408.000000 177.000000 -68.000000
0.451090 144.000000 372.000000 226.000000 -257.000000 -46.000000 309.000000 479.000000 832.000000 248.000000 413.000000 186.000000 -63.000000
0.452090 120.000000 372.000000 251.000000 -257.000000 -38.000000 301.000000 474.000000 827.000000 243.000000 418.000000 196.000000 -48.000000
0.453091 110.000000 367.000000 255.000000 -245.000000 -63.000000 314.000000 474.000000 832.000000 248.000000 412.000000 191.000000 -58.000000
0.454091 110.000000 357.000000 246.000000 -237.000000 -70.000000 314.000000 474.000000 832.000000 248.000000 422.000000 196.000000 -53.000000
0.455091 105.000000 352.000000 246.000000 -232.000000 -65.000000 304.000000 479.000000 832.000000 248.000000 417.000000 186.000000 -58.000000
0.456091 129.000000 363.000000 231.000000 -227.000000 -68.000000 301.000000 489.000000 837.000000 243.000000 416.000000 182.000000 -62.000000
0.457091 129.000000 373.000000 241.000000 -245.000000 -48.000000 299.000000 484.000000 831.000000 238.000000 411.000000 182.000000 -58.000000
0.458092 125.000000 392.000000 265.000000 -249.000000 -53.000000 309.000000 479.000000 831.000000 238.000000 406.000000 177.000000 -67.000000
0.459092 134.000000 383.000000 246.000000 -258.000000 -68.000000 331.000000 484.000000 836.000000 248.000000 406.000000 183.000000 -60.000000
0.460092 125.000000 353.000000 226.000000 -258.000000 -53.000000 316.000000 474.000000 825.000000 238.000000 416.000000 187.000000 -56.000000
0.461092 120.000000 348.000000 227.000000 -238.000000 -48.000000 292.000000 474.000000 825.000000 238.000000 401.000000 178.000000 -65.000000
0.462092 110.000000 353.000000 242.000000 -233.000000 -50.000000 289.000000 489.000000 834.000000 248.000000 401.000000 178.000000 -65.000000
0.463093 110.000000 348.000000 237.000000 -231.000000 -63.000000 300.000000 494.000000 839.000000 243.000000 411.000000 183.000000 -56.000000
0.464093 125.000000 344.000000 217.000000 -228.000000 -60.000000 295.000000 494.000000 834.000000 238.000000 406.000000 178.000000 -60.000000
0.465093 125.000000 358.000000 232.000000 -233.000000 -43.000000 283.000000 489.000000 834.000000 238.000000 401.000000 173.000000 -70.000000
0.466093 134.000000 373.000000 237.000000 -241.000000 -50.000000 297.000000 493.000000 839.000000 243.000000 405.000000 178.000000 -64.000000
0.467093 134.000000 378.000000 242.000000 -253.000000 -48.000000 307.000000 493.000000 839.000000 243.000000 405.000000 178.000000 -69.000000
0.468094 120.000000 373.000000 252.000000 -255.000000 -50.000000 312.000000 483.000000 828.000000 243.000000 410.000000 183.000000 -64.000000
0.469094 110.000000 344.000000 232.000000 -246.000000 -63.000000 315.000000 483.000000 828.000000 233.000000 405.000000 178.000000 -64.000000
0.470094 111.000000 345.000000 233.000000 -226.000000 -59.000000 290.000000 493.000000 838.000000 248.000000 400.000000 173.000000 -69.000000
0.471094 106.000000 335.000000 228.000000 -227.000000 -59.000000 291.000000 493.000000 838.000000 239.000000 415.000000 187.000000 -59.000000
0.472094 106.000000 325.000000 219.000000 -219.000000 -60.000000 284.000000 492.000000 837.000000 239.000000 405.000000 178.000000 -63.000000
0.473095 86.000000 306.000000 219.000000 -214.000000 -55.000000 274.000000 487.000000 832.000000 240.000000 404.000000 179.000000 -63.000000
0.474095 96.000000 320.000000 224.000000 -195.000000 -65.000000 264.000000 492.000000 842.000000 244.000000 404.000000 174.000000 -62.000000
0.475095 106.000000 325.000000 219.000000 -207.000000 -62.000000 274.000000 492.000000 832.000000 235.000000 414.000000 189.000000 -52.000000
0.476095 96.000000 335.000000 238.000000 -214.000000 -55.000000 274.000000 492.000000 836.000000 235.000000 399.000000 174.000000 -67.000000
0.477095 96.000000 325.000000 228.000000 -214.000000 -70.000000 288.000000 492.000000 831.000000 230.000000 399.000000 174.000000 -62.000000
0.478096 116.000000 335.000000 219.000000 -209.000000 -65.000000 279.000000 487.000000 825.000000 230.000000 394.000000 174.000000 -67.000000
0.479096 101.000000 335.000000 233.000000 -224.000000 -50.000000 279.000000 492.000000 835.000000 240.000000 394.000000 164.000000 -86.000000
0.480096 86.000000 335.000000 248.000000 -217.000000 -65.000000 286.000000 482.000000 830.000000 240.000000 403.000000 184.000000 -56.000000
0.481096 106.000000 340.000000 233.000000 -209.000000 -79.000000 293.000000 482.000000 825.000000 235.000000 403.000000 174.000000 -66.000000
0.482096 86.000000 315.000000 228.000000 -222.000000 -62.000000 288.000000 482.000000 815.000000 225.000000 403.000000 174.000000 -71.000000
0.483097 77.000000 296.000000 219.000000 -200.000000 -70.000000 274.000000 477.000000 825.000000 235.000000 397.000000 174.000000 -66.000000
0.484097 91.000000 297.000000 204.000000 -185.000000 -70.000000 259.000000 497.000000 839.000000 235.000000 397.000000 164.000000 -75.000000
0.485097 96.000000 302.000000 204.000000 -192.000000 -55.000000 252.000000 492.000000 829.000000 225.000000 397.000000 169.000000 -75.000000
0.486097 111.000000 326.000000 214.000000 -197.000000 -53.000000 254.000000 497.000000 829.000000 230.000000 388.000000 154.000000 -85.000000
0.487097 106.000000 326.000000 219.000000 -217.000000 -50.000000 271.000000 497.000000 833.000000 235.000000 388.000000 155.000000 -88.000000
0.488098 91.000000 321.000000 228.000000 -214.000000 -55.000000 274.000000 486.000000 833.000000 244.000000 402.000000 165.000000 -83.000000
0.489098 96.000000 321.000000 224.000000 -205.000000 -67.000000 276.000000 486.000000 837.000000 244.000000 407.000000 175.000000 -69.000000
0.490098 77.000000 302.000000 224.000000 -207.000000 -62.000000 274.000000 496.000000 832.000000 235.000000 407.000000 175.000000 -69.000000
0.491098 81.000000 298.000000 214.000000 -187.000000 -72.000000 264.000000 486.000000 822.000000 215.000000 392.000000 165.000000 -73.000000
0.492098 91.000000 298.000000 204.000000 -187.000000 -65.000000 257.000000 496.000000 827.000000 220.000000 378.000000 146.000000 -83.000000
0.493099 101.000000 317.000000 214.000000 -192.000000 -55.000000 253.000000 496.000000 832.000000 230.000000 377.000000 151.000000 -88.000000
0.494099 111.000000 332.000000 219.000000 -207.000000 -55.000000 267.000000 490.000000 827.000000 225.000000 387.000000 161.000000 -77.000000
0.495099 106.000000 342.000000 234.000000 -219.000000 -53.000000 277.000000 500.000000 836.000000 235.000000 382.000000 156.000000 -82.000000
0.496099 106.000000 352.000000 244.000000 -222.000000 -62.000000 289.000000 500.000000 836.000000 235.000000 391.000000 166.000000 -72.000000
0.497099 96.000000 352.000000 254.000000 -227.000000 -67.000000 299.000000 500.000000 831.000000 230.000000 391.000000 166.000000 -72.000000
0.498100 77.000000 342.000000 264.000000 -222.000000 -77.000000 304.000000 504.000000 835.000000 235.000000 382.000000 161.000000 -72.000000
0.499100 72.000000 342.000000 268.000000 -207.000000 -92.000000 304.000000 514.000000 840.000000 244.000000 390.000000 166.000000 -68.000000
0.500100 86.000000 347.000000 259.000000 -205.000000 -97.000000 306.000000 514.000000 834.000000 235.000000 395.000000 171.000000 -68.000000
0.501100 81.000000 347.000000 264.000000 -214.000000 -84.000000 305.000000 519.000000 834.000000 230.000000 386.000000 156.000000 -80.000000
0.502100 101.000000 357.000000 254.000000 -212.000000 -89.000000 307.000000 519.000000 834.000000 225.000000 375.000000 147.000000 -90.000000
0.503101 116.000000 361.000000 245.000000 -227.000000 -75.000000 307.000000 524.000000 834.000000 230.000000 375.000000 147.000000 -90.000000
0.504101 111.000000 376.000000 265.000000 -236.000000 -62.000000 305.000000 518.000000 844.000000 240.000000 380.000000 156.000000 -80.000000
0.505101 111.000000 376.000000 265.000000 -241.000000 -75.000000 322.000000 513.000000 839.000000 240.000000 389.000000 166.000000 -75.000000
0.506101 106.000000 376.000000 269.000000 -241.000000 -75.000000 322.000000 503.000000 833.000000 240.000000 389.000000 166.000000 -75.000000
0.507101 91.000000 381.000000 289.000000 -240.000000 -79.000000 325.000000 503.000000 838.000000 240.000000 394.000000 166.000000 -75.000000
0.508102 96.000000 386.000000 289.000000 -235.000000 -97.000000 337.000000 503.000000 838.000000 235.000000 394.000000 171.000000 -69.000000
0.509102 96.000000 386.000000 289.000000 -240.000000 -94.000000 339.000000 513.000000 842.000000 235.000000 394.000000 171.000000 -69.000000
0.510102 111.000000 400.000000 289.000000 -240.000000 -94.000000 339.000000 503.000000 837.000000 230.000000 399.000000 181.000000 -65.000000
0.511102 135.000000 410.000000 274.000000 -254.000000 -87.000000 347.000000 489.000000 831.000000 230.000000 389.000000 171.000000 -65.000000
0.512102 125.000000 416.000000 289.000000 -271.000000 -67.000000 344.000000 479.000000 831.000000 240.000000 388.000000 171.000000 -69.000000
0.513103 111.000000 406.000000 294.000000 -269.000000 -79.000000 354.000000 469.000000 826.000000 235.000000 398.000000 181.000000 -60.000000
0.514103 116.000000 382.000000 265.000000 -257.000000 -89.000000 351.000000 469.000000 826.000000 235.000000 393.000000 171.000000 -65.000000
0.515103 106.000000 372.000000 265.000000 -247.000000 -72.000000 326.000000 469.000000 831.000000 240.000000 398.000000 177.000000 -53.000000
0.516103 116.000000 387.000000 269.000000 -237.000000 -77.000000 321.000000 469.000000 831.000000 235.000000 408.000000 187.000000 -48.000000
0.517103 125.000000 397.000000 269.000000 -249.000000 -75.000000 330.000000 469.000000 830.000000 235.000000 403.000000 182.000000 -53.000000
0.518104 135.000000 421.000000 284.000000 -260.000000 -70.000000 335.000000 464.000000 830.000000 235.000000 402.000000 182.000000 -58.000000
0.519104 145.000000 436.000000 290.000000 -277.000000 -72.000000 355.000000 459.000000 835.000000 241.000000 402.000000 182.000000 -58.000000
0.520104 140.000000 421.000000 280.000000 -290.000000 -70.000000 365.000000 454.000000 840.000000 250.000000 407.000000 187.000000 -53.000000
0.521104 140.000000 406.000000 266.000000 -280.000000 -67.000000 352.000000 449.000000 834.000000 250.000000 417.000000 196.000000 -48.000000
0.522104 135.000000 387.000000 251.000000 -272.000000 -60.000000 338.000000 434.000000 813.000000 231.000000 416.000000 196.000000 -47.000000
0.523105 116.000000 362.000000 246.000000 -260.000000 -55.000000 321.000000 434.000000 808.000000 231.000000 396.000000 187.000000 -52.000000
0.524105 106.000000 367.000000 261.000000 -238.000000 -62.000000 306.000000 429.000000 803.000000 221.000000 396.000000 182.000000 -57.000000
0.525105 101.000000 387.000000 285.000000 -236.000000 -75.000000 316.000000 434.000000 803.000000 216.000000 386.000000 172.000000 -62.000000
0.526105 130.000000 393.000000 261.000000 -243.000000 -89.000000 338.000000 438.000000 818.000000 231.000000 386.000000 172.000000 -62.000000
0.527105 160.000000 422.000000 261.000000 -260.000000 -62.000000 328.000000 428.000000 808.000000 226.000000 401.000000 187.000000 -52.000000
0.528106 164.000000 422.000000 256.000000 -290.000000 -48.000000 343.000000 414.000000 807.000000 231.000000 401.000000 187.000000 -52.000000
0.529106 160.000000 402.000000 241.000000 -292.000000 -43.000000 340.000000 409.000000 807.000000 231.000000 406.000000 197.000000 -45.000000
0.530106 150.000000 398.000000 246.000000 -280.000000 -39.000000 323.000000 414.000000 802.000000 231.000000 411.000000 202.000000 -30.000000
0.531106 150.000000 398.000000 246.000000 -272.000000 -46.000000 323.000000 423.000000 817.000000 241.000000 405.000000 193.000000 -40.000000
0.532106 150.000000 383.000000 231.000000 -272.000000 -46.000000 323.000000 443.000000 840.000000 260.000000 410.000000 197.000000 -35.000000
0.533107 135.000000 379.000000 241.000000 -265.000000 -39.000000 308.000000 448.000000 844.000000 260.000000 434.000000 212.000000 -25.000000
0.534107 135.000000 384.000000 246.000000 -255.000000 -51.000000 311.000000 457.000000 854.000000 270.000000 429.000000 207.000000 -35.000000
0.535107 140.000000 394.000000 251.000000 -258.000000 -54.000000 316.000000 453.000000 849.000000 260.000000 439.000000 212.000000 -30.000000
0.536107 164.000000 389.000000 222.000000 -265.000000 -54.000000 323.000000 442.000000 839.000000 255.000000 434.000000 213.000000 -34.000000
0.537107 160.000000 394.000000 231.000000 -275.000000 -27.000000 307.000000 437.000000 835.000000 255.000000 424.000000 203.000000 -44.000000
0.538108 150.000000 360.000000 207.000000 -275.000000 -34.000000 314.000000 442.000000 839.000000 260.000000 419.000000 198.000000 -44.000000
0.539108 135.000000 335.000000 197.000000 -253.000000 -27.000000 285.000000 437.000000 824.000000 245.000000 428.000000 203.000000 -39.000000
0.540108 121.000000 330.000000 207.000000 -233.000000 -29.000000 268.000000 447.000000 834.000000 245.000000 414.000000 194.000000 -49.000000
0.541108 116.000000 325.000000 207.000000 -224.000000 -41.000000 270.000000 447.000000 824.000000 241.000000 413.000000 194.000000 -49.000000
0.542108 116.000000 340.000000 222.000000 -220.000000 -44.000000 268.000000 447.000000 814.000000 231.000000 408.000000 189.000000 -61.000000
0.543109 101.000000 345.000000 242.000000 -227.000000 -51.000000 283.000000 452.000000 823.000000 245.000000 403.000000 179.000000 -66.000000
0.544109 86.000000 330.000000 242.000000 -222.000000 -68.000000 295.000000 442.000000 818.000000 236.000000 418.000000 194.000000 -57.000000
0.545109 96.000000 335.000000 237.000000 -208.000000 -76.000000 289.000000 456.000000 822.000000 241.000000 408.000000 179.000000 -76.000000
0.546109 96.000000 335.000000 237.000000 -215.000000 -68.000000 289.000000 466.000000 822.000000 226.000000 403.000000 174.000000 -76.000000
0.547109 86.000000 291.000000 203.000000 -215.000000 -68.000000 289.000000 461.000000 812.000000 211.000000 383.000000 159.000000 -86.000000
0.548110 86.000000 272.000000 184.000000 -188.000000 -56.000000 249.000000 471.000000 832.000000 231.000000 369.000000 150.000000 -96.000000
0.549110 77.000000 281.000000 203.000000 -178.000000 -46.000000 230.000000 481.000000 832.000000 231.000000 388.000000 164.000000 -85.000000
0.550110 86.000000 291.000000 203.000000 -178.000000 -61.000000 245.000000 481.000000 826.000000 226.000000 388.000000 159.000000 -90.000000
0.551110 96.000000 281.000000 185.000000 -188.000000 -56.000000 249.000000 476.000000 826.000000 221.000000 382.000000 150.000000 -95.000000
0.552110 106.000000 286.000000 180.000000 -188.000000 -41.000000 235.000000 475.000000 821.000000 216.000000 378.000000 145.000000 -109.000000
0.553111 96.000000 292.000000 194.000000 -195.000000 -34.000000 235.000000 475.000000 821.000000 221.000000 373.000000 145.000000 -109.000000
0.554111 96.000000 287.000000 189.000000 -193.000000 -46.000000 245.000000 470.000000 820.000000 216.000000 373.000000 145.000000 -99.000000
0.555111 106.000000 287.000000 180.000000 -190.000000 -44.000000 240.000000 460.000000 810.000000 211.000000 373.000000 150.000000 -99.000000
0.556111 81.000000 263.000000 180.000000 -195.000000 -34.000000 235.000000 460.000000 804.000000 211.000000 368.000000 141.000000 -107.000000
0.557111 77.000000 253.000000 175.000000 -171.000000 -46.000000 223.000000 470.000000 814.000000 216.000000 367.000000 141.000000 -102.000000
0.558112 86.000000 258.000000 170.000000 -164.000000 -46.000000 215.000000 469.000000 809.000000 206.000000 377.000000 151.000000 -93.000000
0.559112 86.000000 263.000000 175.000000 -171.000000 -39.000000 216.000000 469.000000 809.000000 206.000000 367.000000 141.000000 -107.000000
0.560112 96.000000 268.000000 170.000000 -173.000000 -41.000000 221.000000 474.000000 809.000000 206.000000 361.000000 141.000000 -107.000000
0.561112 111.000000 282.000000 170.000000 -181.000000 -34.000000 221.000000 469.000000 808.000000 201.000000 366.000000 141.000000 -107.000000
0.562112 96.000000 282.000000 185.000000 -195.000000 -27.000000 229.000000 474.000000 813.000000 211.000000 356.000000 131.000000 -117.000000
0.563113 81.000000 287.000000 204.000000 -188.000000 -41.000000 236.000000 474.000000 813.000000 216.000000 361.000000 136.000000 -106.000000
0.564113 86.000000 263.000000 175.000000 -183.000000 -59.000000 248.000000 474.000000 813.000000 211.000000 371.000000 146.000000 -101.000000
0.565113 77.000000 248.000000 170.000000 -173.000000 -41.000000 221.000000 474.000000 812.000000 216.000000 366.000000 136.000000 -111.000000
0.566113 77.000000 258.000000 180.000000 -161.000000 -44.000000 211.000000 479.000000 817.000000 213.000000 371.000000 146.000000 -101.000000
0.567113 77.000000 249.000000 170.000000 -166.000000 -49.000000 221.000000 484.000000 811.000000 208.000000 371.000000 141.000000 -111.000000
0.568114 81.000000 264.000000 181.000000 -161.000000 -44.000000 211.000000 478.000000 806.000000 208.000000 366.000000 131.000000 -121.000000
0.569114 96.000000 279.000000 181.000000 -171.000000 -46.000000 224.000000 483.000000 811.000000 208.000000 371.000000 136.000000 -116.000000
0.570114 91.000000 269.000000 176.000000 -186.000000 -39.000000 231.000000 488.000000 816.000000 213.000000 365.000000 132.000000 -114.000000
0.571114 86.000000 269.000000 181.000000 -178.000000 -39.000000 224.000000 473.000000 806.000000 208.000000 370.000000 137.000000 -114.000000
0.572114 77.000000 269.000000 190.000000 -176.000000 -44.000000 226.000000 488.000000 810.000000 213.000000 365.000000 132.000000 -114.000000
0.573115 67.000000 264.000000 195.000000 -171.000000 -54.000000 231.000000 488.000000 815.000000 218.000000 375.000000 137.000000 -109.000000
0.574115 77.000000 250.000000 171.000000 -164.000000 -61.000000 231.000000 483.000000 810.000000 208.000000 375.000000 137.000000 -109.000000
0.575115 72.000000 241.000000 166.000000 -161.000000 -44.000000 211.000000 488.000000 815.000000 208.000000 375.000000 132.000000 -114.000000
0.576115 81.000000 241.000000 156.000000 -154.000000 -44.000000 204.000000 488.000000 814.000000 208.000000 369.000000 127.000000 -119.000000
0.577115 86.000000 265.000000 176.000000 -160.000000 -34.000000 199.000000 488.000000 814.000000 208.000000 369.000000 128.000000 -118.000000
0.578116 96.000000 260.000000 161.000000 -174.000000 -41.000000 221.000000 488.000000 813.000000 208.000000 374.000000 128.000000 -128.000000
0.579116 91.000000 275.000000 181.000000 -177.000000 -29.000000 211.000000 493.000000 818.000000 218.000000 369.000000 128.000000 -123.000000
0.580116 86.000000 260.000000 171.000000 -182.000000 -41.000000 229.000000 493.000000 818.000000 213.000000 377.000000 138.000000 -113.000000
0.581116 77.000000 241.000000 161.000000 -172.000000 -39.000000 217.000000 488.000000 813.000000 213.000000 373.000000 133.000000 -118.000000
0.582116 57.000000 241.000000 181.000000 -157.000000 -39.000000 203.000000 488.000000 818.000000 213.000000 368.000000 128.000000 -118.000000
0.583117 67.000000 241.000000 171.000000 -148.000000 -59.000000 212.000000 493.000000 817.000000 213.000000 373.000000 133.000000 -118.000000
0.584117 81.000000 265.000000 181.000000 -152.000000 -49.000000 208.000000 496.000000 817.000000 213.000000 373.000000 133.000000 -116.000000
0.585117 91.000000 275.000000 181.000000 -172.000000 -46.000000 225.000000 492.000000 817.000000 213.000000 368.000000 128.000000 -121.000000
0.586117 96.000000 275.000000 176.000000 -182.000000 -41.000000 230.000000 487.000000 807.000000 203.000000 368.000000 128.000000 -121.000000
0.587117 96.000000 275.000000 176.000000 -184.000000 -37.000000 227.000000 487.000000 811.000000 213.000000 358.000000 114.000000 -135.000000
0.588118 91.000000 260.000000 166.000000 -184.000000 -37.000000 227.000000 487.000000 811.000000 213.000000 368.000000 128.000000 -126.000000
0.589118 86.000000 255.000000 166.000000 -175.000000 -36.000000 216.000000 482.000000 810.000000 213.000000 372.000000 133.000000 -121.000000
0.590118 77.000000 245.000000 166.000000 -171.000000 -39.000000 213.000000 495.000000 820.000000 218.000000 367.000000 128.000000 -121.000000
0.591118 62.000000 245.000000 181.000000 -161.000000 -43.000000 209.000000 491.000000 815.000000 213.000000 376.000000 138.000000 -110.000000
0.592118 77.000000 255.000000 177.000000 -153.000000 -58.000000 216.000000 491.000000 815.000000 208.000000 372.000000 128.000000 -115.000000
0.593119 91.000000 255.000000 162.000000 -166.000000 -48.000000 218.000000 495.000000 820.000000 213.000000 367.000000 123.000000 -125.000000
0.594119 96.000000 265.000000 167.000000 -173.000000 -34.000000 211.000000 491.000000 814.000000 208.000000 372.000000 128.000000 -125.000000
0.595119 96.000000 276.000000 177.000000 -180.000000 -34.000000 218.000000 491.000000 809.000000 208.000000 367.000000 119.000000 -130.000000
0.596119 91.000000 266.000000 172.000000 -185.000000 -39.000000 228.000000 495.000000 814.000000 213.000000 366.000000 123.000000 -125.000000
0.597119 86.000000 251.000000 162.000000 -178.000000 -39.000000 221.000000 486.000000 809.000000 213.000000 375.000000 133.000000 -120.000000
0.598120 77.000000 242.000000 162.000000 -168.000000 -36.000000 209.000000 495.000000 813.000000 218.000000 371.000000 129.000000 -123.000000
0.599120 77.000000 246.000000 167.000000 -158.000000 -41.000000 204.000000 500.000000 822.000000 218.000000 374.000000 134.000000 -118.000000
0.600120 77.000000 251.000000 173.000000 -161.000000 -43.000000 209.000000 499.000000 817.000000 208.000000 379.000000 139.000000 -113.000000
0.601120 72.000000 261.000000 188.000000 -163.000000 -46.000000 213.000000 494.000000 817.000000 208.000000 370.000000 124.000000 -132.000000
0.602120 86.000000 261.000000 173.000000 -166.000000 -56.000000 226.000000 499.000000 817.000000 213.000000 374.000000 129.000000 -123.000000
0.603121 106.000000 271.000000 163.000000 -173.000000 -41.000000 219.000000 494.000000 817.000000 208.000000 379.000000 129.000000 -118.000000
0.604121 101.000000 276.000000 173.000000 -188.000000 -26.000000 219.000000 494.000000 812.000000 213.000000 370.000000 120.000000 -132.000000
0.605121 91.000000 261.000000 168.000000 -188.000000 -34.000000 227.000000 494.000000 811.000000 218.000000 374.000000 129.000000 -122.000000
0.606121 77.000000 237.000000 158.000000 -175.000000 -36.000000 217.000000 490.000000 811.000000 213.000000 379.000000 129.000000 -122.000000
0.607121 67.000000 242.000000 173.000000 -156.000000 -39.000000 200.000000 494.000000 816.000000 218.000000 374.000000 129.000000 -122.000000
0.608122 77.000000 238.000000 158.000000 -153.000000 -51.000000 210.000000 504.000000 820.000000 213.000000 378.000000 139.000000 -112.000000
0.609122 77.000000 252.000000 173.000000 -156.000000 -39.000000 200.000000 499.000000 815.000000 208.000000 378.000000 134.000000 -122.000000
0.610122 86.000000 277.000000 188.000000 -163.000000 -46.000000 214.000000 499.000000 815.000000 208.000000 373.000000 129.000000 -127.000000
0.611122 97.000000 296.000000 197.000000 -180.000000 -48.000000 234.000000 490.000000 799.000000 199.000000 373.000000 125.000000 -125.000000
0.612122 87.000000 291.000000 202.000000 -196.000000 -48.000000 249.000000 490.000000 789.000000 194.000000 364.000000 121.000000 -129.000000
0.613123 63.000000 306.000000 241.000000 -189.000000 -56.000000 249.000000 490.000000 779.000000 190.000000 364.000000 116.000000 -134.000000
0.614123 58.000000 316.000000 256.000000 -184.000000 -87.000000 275.000000 499.000000 770.000000 180.000000 369.000000 125.000000 -120.000000
0.615123 68.000000 331.000000 261.000000 -186.000000 -97.000000 288.000000 514.000000 765.000000 180.000000 363.000000 125.000000 -120.000000
0.616123 78.000000 370.000000 291.000000 -198.000000 -95.000000 297.000000 508.000000 750.000000 175.000000 372.000000 135.000000 -115.000000
0.617123 87.000000 395.000000 306.000000 -223.000000 -104.000000 332.000000 489.000000 739.000000 185.000000 382.000000 145.000000 -110.000000
0.618124 102.000000 439.000000 335.000000 -240.000000 -107.000000 351.000000 454.000000 730.000000 209.000000 415.000000 185.000000 -70.000000
0.619124 126.000000 458.000000 330.000000 -269.000000 -114.000000 388.000000 445.000000 735.000000 229.000000 464.000000 234.000000 -36.000000
0.620124 136.000000 468.000000 330.000000 -291.000000 -100.000000 395.000000 449.000000 768.000000 278.000000 493.000000 258.000000 -16.000000
0.621124 156.000000 512.000000 355.000000 -301.000000 -95.000000 400.000000 445.000000 826.000000 346.000000 542.000000 302.000000 7.000000
0.622124 185.000000 488.000000 301.000000 -333.000000 -97.000000 434.000000 434.000000 869.000000 414.000000 615.000000 361.000000 51.000000
0.623125 200.000000 429.000000 228.000000 -335.000000 -56.000000 395.000000 405.000000 923.000000 507.000000 679.000000 409.000000 80.000000
0.624125 239.000000 356.000000 117.000000 -313.000000 -12.000000 329.000000 400.000000 1006.000000 619.000000 776.000000 478.000000 129.000000
0.625125 287.000000 248.000000 -39.000000 -296.000000 62.000000 237.000000 419.000000 1152.000000 766.000000 859.000000 517.000000 146.000000
0.626125 312.000000 122.000000 -189.000000 -268.000000 163.000000 104.000000 444.000000 1338.000000 951.000000 947.000000 531.000000 126.000000
0.627125 346.000000 68.000000 -276.000000 -217.000000 251.000000 -32.000000 453.000000 1450.000000 1044.000000 1064.000000 570.000000 122.000000
0.628126 370.000000 24.000000 -345.000000 -207.000000 312.000000 -103.000000 453.000000 1522.000000 1102.000000 1093.000000 551.000000 87.000000
0.629126 351.000000 -29.000000 -380.000000 -197.000000 358.000000 -159.000000 434.000000 1537.000000 1107.000000 1102.000000 527.000000 68.000000
0.630126 326.000000 -73.000000 -400.000000 -161.000000 366.000000 -204.000000 375.000000 1395.000000 961.000000 1078.000000 502.000000 58.000000
0.631126 312.000000 -131.000000 -444.000000 -126.000000 363.000000 -236.000000 322.000000 1170.000000 766.000000 941.000000 400.000000 0.000000
0.632126 326.000000 -180.000000 -507.000000 -90.000000 378.000000 -287.000000 252.000000 935.000000 575.000000 775.000000 302.000000 -47.000000
0.633127 322.000000 -224.000000 -546.000000 -73.000000 417.000000 -343.000000 194.000000 759.000000 419.000000 634.000000 214.000000 -91.000000
0.634127 322.000000 -253.000000 -575.000000 -48.000000 434.000000 -384.000000 150.000000 661.000000 317.000000 506.000000 136.000000 -145.000000
0.635127 287.000000 -283.000000 -570.000000 -34.000000 448.000000 -413.000000 135.000000 583.000000 214.000000 433.000000 102.000000 -150.000000
0.636127 258.000000 -330.000000 -590.000000 -2.000000 429.000000 -426.000000 135.000000 471.000000 92.000000 340.000000 39.000000 -189.000000
0.637127 224.000000 -355.000000 -580.000000 35.000000 423.000000 -461.000000 150.000000 339.000000 -43.000000 232.000000 -24.000000 -233.000000
0.638128 165.000000 -369.000000 -536.000000 64.000000 401.000000 -468.000000 169.000000 188.000000 -200.000000 124.000000 -87.000000 -272.000000
0.639128 131.000000 -360.000000 -492.000000 101.000000 350.000000 -454.000000 208.000000 60.000000 -351.000000 -2.000000 -169.000000 -319.000000
0.640128 92.000000 -384.000000 -477.000000 113.000000 311.000000 -427.000000 335.000000 40.000000 -429.000000 -114.000000 -243.000000 -372.000000
0.641128 53.000000 -389.000000 -443.000000 145.000000 284.000000 -432.000000 394.000000 -17.000000 -527.000000 -192.000000 -301.000000 -421.000000
0.642128 19.000000 -379.000000 -399.000000 167.000000 247.000000 -417.000000 452.000000 -82.000000 -610.000000 -280.000000 -369.000000 -470.000000
0.643129 0.000000 -379.000000 -379.000000 179.000000 208.000000 -390.000000 550.000000 -82.000000 -649.000000 -353.000000 -423.000000 -509.000000
0.644129 -34.000000 -355.000000 -319.000000 189.000000 189.000000 -380.000000 643.000000 -73.000000 -678.000000 -402.000000 -467.000000 -548.000000
0.645129 -68.000000 -321.000000 -251.000000 193.000000 141.000000 -339.000000 721.000000 -48.000000 -673.000000 -441.000000 -511.000000 -587.000000
0.646129 -107.000000 -286.000000 -178.000000 193.000000 90.000000 -288.000000 799.000000 -9.000000 -653.000000 -450.000000 -526.000000 -606.000000
0.647129 -146.000000 -272.000000 -125.000000 195.000000 33.000000 -233.000000 906.000000 38.000000 -629.000000 -442.000000 -535.000000 -620.000000
0.648130 -161.000000 -243.000000 -80.000000 207.000000 -11.000000 -199.000000 988.000000 68.000000 -605.000000 -432.000000 -550.000000 -645.000000
0.649130 -165.000000 -203.000000 -37.000000 200.000000 -41.000000 -162.000000 1013.000000 77.000000 -595.000000 -412.000000 -535.000000 -635.000000
0.650130 -185.000000 -139.000000 45.000000 183.000000 -65.000000 -121.000000 949.000000 72.000000 -585.000000 -393.000000 -521.000000 -625.000000
0.651130 -190.000000 -95.000000 94.000000 162.000000 -115.000000 -46.000000 876.000000 67.000000 -561.000000 -373.000000 -501.000000 -610.000000
0.652130 -190.000000 -41.000000 147.000000 142.000000 -142.000000 0.000000 852.000000 76.000000 -536.000000 -334.000000 -462.000000 -576.000000
0.653131 -185.000000 11.000000 197.000000 116.000000 -169.000000 52.000000 842.000000 90.000000 -512.000000 -301.000000 -432.000000 -555.000000
0.654131 -185.000000 65.000000 250.000000 86.000000 -191.000000 104.000000 777.000000 90.000000 -488.000000 -272.000000 -407.000000 -525.000000
0.655131 -195.000000 89.000000 285.000000 60.000000 -218.000000 158.000000 699.000000 89.000000 -468.000000 -238.000000 -368.000000 -491.000000
0.656131 -195.000000 99.000000 294.000000 52.000000 -240.000000 187.000000 646.000000 118.000000 -429.000000 -213.000000 -344.000000 -472.000000
0.657131 -170.000000 85.000000 255.000000 47.000000 -245.000000 197.000000 611.000000 153.000000 -385.000000 -166.000000 -300.000000 -438.000000
0.658132 -150.000000 105.000000 255.000000 42.000000 -213.000000 170.000000 553.000000 182.000000 -351.000000 -117.000000 -256.000000 -403.000000
0.659132 -121.000000 129.000000 250.000000 22.000000 -203.000000 180.000000 445.000000 211.000000 -312.000000 -83.000000 -232.000000 -389.000000
0.660132 -72.000000 149.000000 221.000000 -3.000000 -185.000000 191.000000 348.000000 226.000000 -285.000000 -39.000000 -192.000000 -349.000000
0.661132 -38.000000 164.000000 202.000000 -37.000000 -146.000000 186.000000 289.000000 249.000000 -256.000000 -14.000000 -172.000000 -339.000000
0.662132 -8.000000 178.000000 187.000000 -61.000000 -119.000000 183.000000 236.000000 293.000000 -207.000000 9.000000 -153.000000 -319.000000
0.663133 1.000000 193.000000 191.000000 -83.000000 -97.000000 183.000000 187.000000 317.000000 -183.000000 58.000000 -109.000000 -280.000000
0.664133 1.000000 178.000000 176.000000 -95.000000 -93.000000 193.000000 161.000000 347.000000 -154.000000 82.000000 -84.000000 -261.000000
0.665133 20.000000 188.000000 167.000000 -88.000000 -86.000000 178.000000 186.000000 409.000000 -100.000000 107.000000 -65.000000 -246.000000
0.666133 30.000000 217.000000 187.000000 -103.000000 -71.000000 178.000000 225.000000 462.000000 -61.000000 150.000000 -31.000000 -217.000000
0.667133 40.000000 242.000000 201.000000 -122.000000 -76.000000 203.000000 264.000000 516.000000 -22.000000 179.000000 -6.000000 -205.000000
0.668134 83.000000 281.000000 196.000000 -139.000000 -79.000000 222.000000 313.000000 579.000000 21.000000 213.000000 12.000000 -186.000000
0.669134 98.000000 315.000000 216.000000 -181.000000 -54.000000 240.000000 366.000000 638.000000 70.000000 252.000000 37.000000 -171.000000
0.670134 108.000000 325.000000 216.000000 -205.000000 -57.000000 267.000000 415.000000 696.000000 119.000000 286.000000 61.000000 -156.000000
0.671134 103.000000 320.000000 216.000000 -215.000000 -52.000000 272.000000 440.000000 735.000000 153.000000 335.000000 105.000000 -113.000000
0.672134 93.000000 310.000000 216.000000 -210.000000 -54.000000 270.000000 449.000000 749.000000 167.000000 360.000000 120.000000 -108.000000
0.673135 103.000000 310.000000 206.000000 -200.000000 -59.000000 265.000000 464.000000 763.000000 177.000000 368.000000 125.000000 -108.000000
0.674135 88.000000 300.000000 211.000000 -205.000000 -49.000000 260.000000 464.000000 768.000000 182.000000 383.000000 134.000000 -92.000000
0.675135 88.000000 305.000000 216.000000 -193.000000 -59.000000 257.000000 464.000000 773.000000 182.000000 388.000000 139.000000 -92.000000
0.676135 103.000000 315.000000 211.000000 -195.000000 -62.000000 262.000000 469.000000 782.000000 192.000000 387.000000 134.000000 -97.000000
0.677135 113.000000 316.000000 201.000000 -208.000000 -52.000000 266.000000 459.000000 781.000000 182.000000 397.000000 144.000000 -87.000000
0.678136 123.000000 321.000000 196.000000 -213.000000 -42.000000 261.000000 459.000000 781.000000 187.000000 392.000000 134.000000 -102.000000
0.679136 123.000000 330.000000 206.000000 -220.000000 -35.000000 261.000000 464.000000 791.000000 202.000000 392.000000 134.000000 -97.000000
0.680136 113.000000 326.000000 211.000000 -225.000000 -40.000000 271.000000 458.000000 791.000000 197.000000 406.000000 155.000000 -80.000000
0.681136 98.000000 316.000000 216.000000 -217.000000 -47.000000 271.000000 458.000000 796.000000 202.000000 401.000000 150.000000 -85.000000
0.682136 118.000000 306.000000 187.000000 -205.000000 -57.000000 268.000000 458.000000 800.000000 206.000000 406.000000 155.000000 -75.000000
0.683137 98.000000 296.000000 196.000000 -211.000000 -32.000000 249.000000 458.000000 799.000000 202.000000 421.000000 165.000000 -70.000000
0.684137 103.000000 316.000000 211.000000 -196.000000 -47.000000 249.000000 463.000000 804.000000 206.000000 411.000000 155.000000 -80.000000
0.685137 127.000000 321.000000 192.000000 -209.000000 -52.000000 266.000000 463.000000 809.000000 211.000000 416.000000 155.000000 -80.000000
0.686137 123.000000 335.000000 211.000000 -223.000000 -30.000000 258.000000 457.000000 804.000000 202.000000 420.000000 160.000000 -75.000000
0.687137 118.000000 345.000000 226.000000 -228.000000 -42.000000 276.000000 457.000000 808.000000 211.000000 410.000000 150.000000 -89.000000
0.688138 132.000000 335.000000 201.000000 -231.000000 -52.000000 288.000000 457.000000 803.000000 211.000000 420.000000 160.000000 -79.000000
0.689138 123.000000 321.000000 197.000000 -233.000000 -32.000000 271.000000 452.000000 793.000000 206.000000 420.000000 160.000000 -79.000000
0.690138 98.000000 316.000000 217.000000 -221.000000 -35.000000 261.000000 462.000000 807.000000 216.000000 415.000000 155.000000 -84.000000
0.691138 108.000000 322.000000 212.000000 -206.000000 -57.000000 269.000000 457.000000 807.000000 211.000000 430.000000 169.000000 -69.000000
0.692138 123.000000 322.000000 197.000000 -214.000000 -49.000000 269.000000 457.000000 807.000000 211.000000 429.000000 165.000000 -74.000000
0.693139 123.000000 327.000000 202.000000 -221.000000 -35.000000 262.000000 457.000000 807.000000 211.000000 424.000000 160.000000 -74.000000
0.694139 127.000000 336.000000 207.000000 -223.000000 -37.000000 267.000000 457.000000 806.000000 206.000000 424.000000 161.000000 -72.000000
0.695139 127.000000 336.000000 207.000000 -231.000000 -37.000000 274.000000 452.000000 806.000000 211.000000 418.000000 156.000000 -82.000000
0.696139 127.000000 346.000000 217.000000 -231.000000 -37.000000 274.000000 451.000000 806.000000 216.000000 418.000000 156.000000 -82.000000
0.697139 118.000000 336.000000 218.000000 -236.000000 -42.000000 284.000000 446.000000 801.000000 211.000000 428.000000 166.000000 -67.000000
0.698140 123.000000 323.000000 198.000000 -226.000000 -47.000000 279.000000 446.000000 800.000000 211.000000 423.000000 166.000000 -72.000000
0.699140 118.000000 323.000000 203.000000 -221.000000 -35.000000 262.000000 446.000000 800.000000 211.000000 423.000000 170.000000 -72.000000
0.700140 118.000000 323.000000 203.000000 -218.000000 -40.000000 264.000000 446.000000 804.000000 211.000000 428.000000 166.000000 -67.000000
0.701140 118.000000 342.000000 223.000000 -218.000000 -40.000000 264.000000 451.000000 809.000000 216.000000 423.000000 167.000000 -71.000000
0.702140 118.000000 357.000000 238.000000 -228.000000 -49.000000 284.000000 446.000000 804.000000 206.000000 433.000000 171.000000 -66.000000
0.703141 142.000000 352.000000 208.000000 -236.000000 -57.000000 299.000000 437.000000 794.000000 202.000000 423.000000 167.000000 -71.000000
0.704141 142.000000 342.000000 198.000000 -245.000000 -30.000000 281.000000 441.000000 794.000000 202.000000 418.000000 157.000000 -76.000000
0.705141 113.000000 328.000000 213.000000 -240.000000 -25.000000 272.000000 441.000000 798.000000 211.000000 422.000000 162.000000 -76.000000
0.706141 118.000000 318.000000 198.000000 -218.000000 -49.000000 272.000000 441.000000 803.000000 216.000000 432.000000 176.000000 -62.000000
0.707141 113.000000 318.000000 203.000000 -216.000000 -39.000000 259.000000 446.000000 808.000000 217.000000 432.000000 176.000000 -57.000000
0.708142 108.000000 342.000000 233.000000 -214.000000 -44.000000 262.000000 446.000000 803.000000 212.000000 436.000000 186.000000 -50.000000
0.709142 118.000000 352.000000 233.000000 -223.000000 -61.000000 289.000000 446.000000 797.000000 207.000000 432.000000 176.000000 -64.000000
0.710142 132.000000 352.000000 218.000000 -233.000000 -56.000000 294.000000 437.000000 792.000000 203.000000 427.000000 171.000000 -74.000000
0.711142 132.000000 362.000000 228.000000 -240.000000 -42.000000 286.000000 432.000000 787.000000 198.000000 426.000000 171.000000 -69.000000
0.712142 142.000000 352.000000 208.000000 -245.000000 -46.000000 296.000000 431.000000 796.000000 212.000000 421.000000 171.000000 -69.000000
0.713143 137.000000 362.000000 224.000000 -245.000000 -32.000000 282.000000 421.000000 791.000000 207.000000 440.000000 181.000000 -60.000000
0.714143 123.000000 347.000000 224.000000 -248.000000 -42.000000 295.000000 426.000000 787.000000 203.000000 430.000000 181.000000 -55.000000
0.715143 108.000000 323.000000 214.000000 -233.000000 -49.000000 287.000000 426.000000 787.000000 207.000000 430.000000 181.000000 -54.000000
0.716143 118.000000 342.000000 224.000000 -214.000000 -51.000000 270.000000 426.000000 786.000000 207.000000 434.000000 181.000000 -49.000000
0.717143 123.000000 367.000000 243.000000 -228.000000 -51.000000 285.000000 436.000000 795.000000 212.000000 434.000000 181.000000 -54.000000
0.718144 137.000000 352.000000 214.000000 -244.000000 -59.000000 307.000000 425.000000 795.000000 212.000000 439.000000 191.000000 -49.000000
0.719144 147.000000 363.000000 214.000000 -244.000000 -37.000000 285.000000 410.000000 776.000000 193.000000 439.000000 186.000000 -54.000000
0.720144 147.000000 368.000000 219.000000 -254.000000 -32.000000 290.000000 415.000000 785.000000 207.000000 420.000000 167.000000 -68.000000
0.721144 147.000000 358.000000 209.000000 -256.000000 -34.000000 296.000000 420.000000 789.000000 212.000000 439.000000 186.000000 -49.000000
0.722144 137.000000 353.000000 214.000000 -251.000000 -29.000000 286.000000 410.000000 779.000000 207.000000 444.000000 192.000000 -47.000000
0.723145 118.000000 363.000000 243.000000 -244.000000 -37.000000 286.000000 415.000000 788.000000 217.000000 439.000000 192.000000 -42.000000
0.724145 127.000000 358.000000 229.000000 -239.000000 -61.000000 305.000000 415.000000 788.000000 212.000000 453.000000 202.000000 -27.000000
0.725145 132.000000 353.000000 219.000000 -241.000000 -49.000000 296.000000 410.000000 779.000000 198.000000 448.000000 197.000000 -27.000000
0.726145 137.000000 368.000000 229.000000 -241.000000 -42.000000 288.000000 410.000000 784.000000 203.000000 438.000000 187.000000 -52.000000
0.727145 147.000000 377.000000 229.000000 -251.000000 -44.000000 301.000000 410.000000 783.000000 203.000000 438.000000 192.000000 -42.000000
0.728146 152.000000 382.000000 229.000000 -261.000000 -39.000000 305.000000 404.000000 778.000000 203.000000 438.000000 192.000000 -42.000000
0.729146 152.000000 377.000000 224.000000 -267.000000 -37.000000 308.000000 404.000000 783.000000 212.000000 433.000000 192.000000 -41.000000
0.730146 137.000000 387.000000 248.000000 -264.000000 -34.000000 303.000000 399.000000 783.000000 217.000000 442.000000 202.000000 -26.000000
0.731146 123.000000 377.000000 253.000000 -262.000000 -54.000000 320.000000 399.000000 782.000000 222.000000 452.000000 207.000000 -26.000000
0.732146 127.000000 363.000000 234.000000 -250.000000 -64.000000 318.000000 399.000000 782.000000 217.000000 457.000000 216.000000 -21.000000
0.733147 137.000000 378.000000 239.000000 -245.000000 -51.000000 301.000000 399.000000 776.000000 212.000000 457.000000 216.000000 -21.000000
0.734147 142.000000 383.000000 239.000000 -257.000000 -49.000000 310.000000 399.000000 781.000000 217.000000 451.000000 211.000000 -26.000000
0.735147 147.000000 388.000000 239.000000 -262.000000 -46.000000 314.000000 395.000000 781.000000 212.000000 451.000000 207.000000 -26.000000
0.736147 152.000000 408.000000 253.000000 -267.000000 -44.000000 316.000000 395.000000 776.000000 217.000000 451.000000 208.000000 -19.000000
0.737147 152.000000 422.000000 269.000000 -279.000000 -49.000000 333.000000 395.000000 785.000000 227.000000 451.000000 217.000000 -24.000000
0.738148 162.000000 413.000000 249.000000 -286.000000 -56.000000 348.000000 390.000000 780.000000 222.000000 466.000000 227.000000 -10.000000
0.739148 157.000000 399.000000 240.000000 -286.000000 -42.000000 333.000000 380.000000 770.000000 222.000000 461.000000 222.000000 -10.000000
0.740148 142.000000 399.000000 254.000000 -277.000000 -39.000000 321.000000 380.000000 775.000000 227.000000 461.000000 227.000000 -10.000000
0.741148 147.000000 399.000000 249.000000 -269.000000 -54.000000 328.000000 385.000000 784.000000 232.000000 471.000000 237.000000 0.000000
0.742148 157.000000 409.000000 249.000000 -272.000000 -49.000000 326.000000 385.000000 779.000000 227.000000 475.000000 243.000000 1.000000
0.743149 166.000000 418.000000 249.000000 -281.000000 -44.000000 331.000000 385.000000 783.000000 232.000000 470.000000 238.000000 1.000000
0.744149 176.000000 428.000000 249.000000 -291.000000 -39.000000 336.000000 379.000000 778.000000 232.000000 474.000000 243.000000 6.000000
0.745149 166.000000 457.000000 289.000000 -301.000000 -34.000000 341.000000 374.000000 782.000000 242.000000 474.000000 243.000000 6.000000
0.746149 171.000000 453.000000 280.000000 -311.000000 -59.000000 375.000000 374.000000 787.000000 251.000000 479.000000 253.000000 16.000000
0.747149 176.000000 448.000000 270.000000 -311.000000 -51.000000 367.000000 364.000000 782.000000 242.000000 489.000000 262.000000 25.000000
0.748150 162.000000 443.000000 280.000000 -311.000000 -44.000000 360.000000 369.000000 792.000000 256.000000 479.000000 253.000000 25.000000
0.749150 157.000000 423.000000 265.000000 -301.000000 -56.000000 363.000000 364.000000 791.000000 251.000000 499.000000 277.000000 36.000000
0.750150 166.000000 433.000000 265.000000 -289.000000 -51.000000 345.000000 358.000000 786.000000 247.000000 498.000000 272.000000 31.000000
0.751150 176.000000 457.000000 280.000000 -299.000000 -46.000000 350.000000 363.000000 801.000000 266.000000 493.000000 267.000000 27.000000
0.752150 182.000000 477.000000 294.000000 -316.000000 -49.000000 370.000000 358.000000 796.000000 266.000000 508.000000 287.000000 46.000000
0.753151 202.000000 477.000000 275.000000 -329.000000 -54.000000 387.000000 354.000000 795.000000 266.000000 511.000000 287.000000 41.000000
0.754151 206.000000 487.000000 280.000000 -339.000000 -34.000000 377.000000 354.000000 800.000000 278.000000 511.000000 287.000000 41.000000
0.755151 202.000000 482.000000 280.000000 -346.000000 -34.000000 384.000000 349.000000 804.000000 288.000000 526.000000 296.000000 51.000000
0.756151 197.000000 482.000000 284.000000 -341.000000 -37.000000 382.000000 344.000000 809.000000 292.000000 531.000000 301.000000 57.000000
0.757151 187.000000 482.000000 294.000000 -339.000000 -42.000000 385.000000 349.000000 819.000000 302.000000 536.000000 311.000000 67.000000
0.758152 187.000000 487.000000 299.000000 -334.000000 -51.000000 390.000000 344.000000 819.000000 297.000000 555.000000 321.000000 76.000000
0.759152 211.000000 492.000000 280.000000 -336.000000 -54.000000 395.000000 349.000000 823.000000 302.000000 550.000000 316.000000 62.000000
0.760152 216.000000 512.000000 294.000000 -351.000000 -32.000000 388.000000 348.000000 833.000000 317.000000 555.000000 326.000000 76.000000
0.761152 226.000000 532.000000 304.000000 -363.000000 -37.000000 405.000000 343.000000 842.000000 322.000000 570.000000 335.000000 81.000000
0.762152 226.000000 532.000000 305.000000 -378.000000 -37.000000 420.000000 348.000000 852.000000 331.000000 575.000000 335.000000 86.000000
0.763153 211.000000 537.000000 324.000000 -378.000000 -37.000000 420.000000 348.000000 852.000000 341.000000 579.000000 341.000000 93.000000
0.764153 216.000000 527.000000 310.000000 -373.000000 -54.000000 432.000000 343.000000 856.000000 341.000000 589.000000 351.000000 103.000000
0.765153 216.000000 522.000000 305.000000 -370.000000 -45.000000 421.000000 353.000000 865.000000 356.000000 589.000000 351.000000 98.000000
0.766153 206.000000 532.000000 324.000000 -368.000000 -43.000000 416.000000 357.000000 874.000000 361.000000 608.000000 366.000000 117.000000
0.767153 216.000000 527.000000 310.000000 -368.000000 -57.000000 430.000000 362.000000 879.000000 366.000000 603.000000 366.000000 108.000000
0.768154 231.000000 532.000000 300.000000 -370.000000 -45.000000 421.000000 367.000000 894.000000 375.000000 613.000000 366.000000 108.000000
0.769154 231.000000 556.000000 324.000000 -380.000000 -33.000000 418.000000 362.000000 894.000000 375.000000 617.000000 376.000000 117.000000
0.770154 250.000000 561.000000 310.000000 -392.000000 -45.000000 443.000000 372.000000 908.000000 395.000000 617.000000 371.000000 113.000000
0.771154 246.000000 551.000000 305.000000 -404.000000 -28.000000 438.000000 372.000000 908.000000 405.000000 631.000000 385.000000 123.000000
0.772154 236.000000 546.000000 310.000000 -397.000000 -28.000000 430.000000 377.000000 917.000000 405.000000 635.000000 385.000000 128.000000
0.773155 216.000000 537.000000 320.000000 -390.000000 -35.000000 430.000000 387.000000 932.000000 424.000000 635.000000 390.000000 128.000000
0.774155 221.000000 528.000000 305.000000 -375.000000 -50.000000 430.000000 392.000000 941.000000 429.000000 650.000000 400.000000 133.000000
0.775155 216.000000 533.000000 315.000000 -373.000000 -40.000000 418.000000 401.000000 940.000000 429.000000 655.000000 405.000000 138.000000
0.776155 226.000000 557.000000 329.000000 -373.000000 -47.000000 426.000000 410.000000 955.000000 434.000000 650.000000 395.000000 128.000000
0.777155 246.000000 567.000000 320.000000 -390.000000 -50.000000 445.000000 415.000000 959.000000 439.000000 655.000000 401.000000 130.000000
0.778156 250.000000 581.000000 329.000000 -404.000000 -35.000000 445.000000 410.000000 954.000000 439.000000 665.000000 411.000000 140.000000
0.779156 255.000000 591.000000 334.000000 -414.000000 -38.000000 458.000000 420.000000 969.000000 453.000000 660.000000 401.000000 130.000000
0.780156 246.000000 586.000000 339.000000 -422.000000 -38.000000 466.000000 420.000000 974.000000 458.000000 679.000000 416.000000 140.000000
0.781156 241.000000 578.000000 334.000000 -414.000000 -45.000000 466.000000 425.000000 974.000000 458.000000 674.000000 416.000000 135.000000
0.782156 231.000000 558.000000 324.000000 -407.000000 -45.000000 458.000000 429.000000 983.000000 463.000000 678.000000 411.000000 140.000000
0.783157 221.000000 548.000000 324.000000 -392.000000 -45.000000 444.000000 438.000000 982.000000 458.000000 678.000000 416.000000 140.000000
0.784157 221.000000 543.000000 320.000000 -382.000000 -50.000000 439.000000 458.000000 992.000000 468.000000 668.000000 407.000000 126.000000
0.785157 246.000000 558.000000 310.000000 -380.000000 -47.000000 434.000000 463.000000 1007.000000 478.000000 678.000000 407.000000 126.000000
0.786157 246.000000 578.000000 330.000000 -400.000000 -30.000000 436.000000 468.000000 1006.000000 473.000000 683.000000 412.000000 126.000000
0.787157 236.000000 568.000000 330.000000 -409.000000 -40.000000 456.000000 477.000000 1006.000000 473.000000 678.000000 397.000000 116.000000
0.788158 231.000000 548.000000 316.000000 -401.000000 -45.000000 451.000000 482.000000 1000.000000 473.000000 672.000000 402.000000 116.000000
0.789158 221.000000 548.000000 325.000000 -388.000000 -40.000000 434.000000 492.000000 1005.000000 473.000000 667.000000 392.000000 107.000000
0.790158 202.000000 529.000000 325.000000 -383.000000 -50.000000 439.000000 507.000000 1010.000000 473.000000 663.000000 382.000000 107.000000
0.791158 197.000000 514.000000 316.000000 -364.000000 -60.000000 429.000000 516.000000 1010.000000 463.000000 663.000000 382.000000 109.000000
0.792158 192.000000 504.000000 311.000000 -354.000000 -57.000000 417.000000 525.000000 1005.000000 453.000000 657.000000 373.000000 89.000000
0.793159 187.000000 524.000000 335.000000 -347.000000 -57.000000 409.000000 530.000000 1000.000000 449.000000 642.000000 358.000000 70.000000
0.794159 197.000000 529.000000 331.000000 -354.000000 -72.000000 431.000000 545.000000 999.000000 439.000000 637.000000 353.000000 70.000000
0.795159 197.000000 524.000000 326.000000 -362.000000 -65.000000 431.000000 554.000000 994.000000 429.000000 623.000000 338.000000 60.000000
0.796159 197.000000 509.000000 312.000000 -359.000000 -62.000000 427.000000 559.000000 989.000000 424.000000 608.000000 319.000000 40.000000
0.797159 167.000000 504.000000 336.000000 -352.000000 -55.000000 412.000000 559.000000 973.000000 410.000000 608.000000 319.000000 50.000000
0.798160 148.000000 456.000000 307.000000 -335.000000 -82.000000 422.000000 569.000000 973.000000 405.000000 588.000000 309.000000 37.000000
0.799160 158.000000 446.000000 287.000000 -301.000000 -77.000000 383.000000 579.000000 968.000000 395.000000 584.000000 299.000000 28.000000
0.800160 153.000000 446.000000 292.000000 -302.000000 -62.000000 368.000000 589.000000 968.000000 390.000000 569.000000 285.000000 23.000000
0.801160 153.000000 465.000000 312.000000 -299.000000 -67.000000 371.000000 598.000000 968.000000 381.000000 563.000000 280.000000 13.000000
0.802160 158.000000 471.000000 312.000000 -309.000000 -77.000000 391.000000 598.000000 958.000000 372.000000 558.000000 275.000000 13.000000
0.803161 148.000000 461.000000 312.000000 -314.000000 -74.000000 393.000000 594.000000 948.000000 357.000000 543.000000 256.000000 -6.000000
0.804161 143.000000 457.000000 312.000000 -304.000000 -79.000000 388.000000 594.000000 943.000000 357.000000 524.000000 246.000000 -21.000000
0.805161 158.000000 461.000000 302.000000 -299.000000 -82.000000 386.000000 589.000000 928.000000 337.000000 529.000000 252.000000 -9.000000
0.806161 128.000000 427.000000 297.000000 -309.000000 -69.000000 384.000000 584.000000 918.000000 332.000000 509.000000 232.000000 -29.000000
0.807161 119.000000 413.000000 292.000000 -277.000000 -82.000000 364.000000 589.000000 918.000000 323.000000 500.000000 227.000000 -34.000000
0.808162 119.000000 413.000000 292.000000 -265.000000 -84.000000 354.000000 588.000000 913.000000 313.000000 499.000000 227.000000 -29.000000
0.809162 109.000000 398.000000 287.000000 -265.000000 -84.000000 355.000000 588.000000 917.000000 313.000000 489.000000 217.000000 -43.000000
0.810162 119.000000 408.000000 288.000000 -253.000000 -86.000000 346.000000 583.000000 901.000000 298.000000 484.000000 208.000000 -48.000000
0.811162 138.000000 413.000000 274.000000 -262.000000 -82.000000 350.000000 583.000000 891.000000 289.000000 463.000000 198.000000 -57.000000
0.812162 124.000000 413.000000 288.000000 -275.000000 -65.000000 346.000000 573.000000 891.000000 293.000000 459.000000 188.000000 -62.000000
0.813163 124.000000 408.000000 284.000000 -267.000000 -79.000000 353.000000 568.000000 882.000000 284.000000 459.000000 193.000000 -57.000000
0.814163 119.000000 393.000000 274.000000 -265.000000 -77.000000 348.000000 562.000000 872.000000 269.000000 449.000000 183.000000 -62.000000
0.815163 104.000000 380.000000 274.000000 -255.000000 -74.000000 336.000000 562.000000 877.000000 274.000000 439.000000 174.000000 -72.000000
0.816163 109.000000 375.000000 264.000000 -241.000000 -82.000000 328.000000 552.000000 871.000000 264.000000 439.000000 183.000000 -62.000000
0.817163 104.000000 370.000000 264.000000 -241.000000 -74.000000 321.000000 552.000000 866.000000 254.000000 429.000000 169.000000 -77.000000
0.818164 114.000000 380.000000 264.000000 -236.000000 -77.000000 319.000000 552.000000 866.000000 254.000000 424.000000 165.000000 -80.000000
0.819164 124.000000 380.000000 254.000000 -245.000000 -72.000000 324.000000 548.000000 856.000000 245.000000 424.000000 165.000000 -80.000000
0.820164 114.000000 380.000000 264.000000 -250.000000 -62.000000 319.000000 543.000000 850.000000 245.000000 418.000000 155.000000 -89.000000
0.821164 114.000000 389.000000 274.000000 -245.000000 -72.000000 324.000000 538.000000 849.000000 245.000000 409.000000 155.000000 -89.000000
0.822164 109.000000 356.000000 245.000000 -250.000000 -77.000000 333.000000 528.000000 840.000000 230.000000 414.000000 155.000000 -89.000000
0.823165 99.000000 346.000000 245.000000 -232.000000 -67.000000 303.000000 528.000000 840.000000 230.000000 399.000000 145.000000 -89.000000
0.824165 94.000000 351.000000 254.000000 -222.000000 -71.000000 298.000000 532.000000 849.000000 240.000000 399.000000 145.000000 -89.000000
0.825165 104.000000 337.000000 230.000000 -222.000000 -79.000000 305.000000 532.000000 840.000000 230.000000 409.000000 151.000000 -83.000000
0.826165 104.000000 351.000000 245.000000 -220.000000 -62.000000 286.000000 532.000000 835.000000 225.000000 394.000000 141.000000 -93.000000
0.827165 104.000000 361.000000 254.000000 -227.000000 -69.000000 300.000000 527.000000 834.000000 220.000000 393.000000 137.000000 -93.000000
0.828166 119.000000 361.000000 240.000000 -232.000000 -74.000000 310.000000 517.000000 829.000000 215.000000 388.000000 137.000000 -108.000000
0.829166 128.000000 356.000000 225.000000 -239.000000 -59.000000 303.000000 512.000000 829.000000 215.000000 383.000000 127.000000 -103.000000
0.830166 109.000000 356.000000 245.000000 -242.000000 -47.000000 293.000000 512.000000 824.000000 220.000000 387.000000 137.000000 -98.000000
0.831166 104.000000 341.000000 235.000000 -232.000000 -67.000000 303.000000 508.000000 828.000000 225.000000 387.000000 141.000000 -98.000000
0.832166 89.000000 337.000000 245.000000 -222.000000 -64.000000 290.000000 508.000000 823.000000 215.000000 392.000000 141.000000 -91.000000
0.833167 89.000000 341.000000 249.000000 -212.000000 -76.000000 293.000000 512.000000 822.000000 206.000000 382.000000 132.000000 -91.000000
0.834167 104.000000 327.000000 221.000000 -215.000000 -79.000000 298.000000 508.000000 817.000000 206.000000 377.000000 127.000000 -111.000000
0.835167 109.000000 341.000000 231.000000 -215.000000 -57.000000 276.000000 508.000000 817.000000 206.000000 377.000000 127.000000 -106.000000
0.836167 109.000000 351.000000 241.000000 -224.000000 -59.000000 288.000000 503.000000 812.000000 196.000000 377.000000 122.000000 -111.000000
0.837167 109.000000 351.000000 241.000000 -229.000000 -64.000000 298.000000 508.000000 817.000000 210.000000 368.000000 117.000000 -116.000000
0.838168 104.000000 337.000000 231.000000 -229.000000 -64.000000 298.000000 503.000000 811.000000 206.000000 382.000000 137.000000 -101.000000
0.839168 99.000000 337.000000 236.000000 -220.000000 -62.000000 286.000000 503.000000 806.000000 201.000000 377.000000 132.000000 -100.000000
0.840168 99.000000 332.000000 231.000000 -217.000000 -67.000000 288.000000 507.000000 811.000000 206.000000 367.000000 127.000000 -100.000000
0.841168 99.000000 327.000000 226.000000 -215.000000 -64.000000 283.000000 502.000000 806.000000 196.000000 372.000000 137.000000 -95.000000
0.842168 89.000000 337.000000 247.000000 -212.000000 -62.000000 278.000000 502.000000 805.000000 191.000000 367.000000 127.000000 -100.000000
